Timestamp,Channel_1
2024-05-26 15:37:06,138.64452292983722
2024-05-26 15:37:06,138.192518774363
2024-05-26 15:37:06,137.41452503062635
2024-05-26 15:37:06,135.9333984363476
2024-05-26 15:37:06,134.42135388295242
2024-05-26 15:37:06,133.13073749472642
2024-05-26 15:37:06,132.98402526210754
2024-05-26 15:37:06,135.13735861161732
2024-05-26 15:37:06,138.1340659094591
2024-05-26 15:37:06,139.85122634962318
2024-05-26 15:37:06,140.5162111861797
2024-05-26 15:37:06,141.00189042339062
2024-05-26 15:37:06,141.06200442432382
2024-05-26 15:37:06,140.6155466032752
2024-05-26 15:37:06,139.6521299277377
2024-05-26 15:37:06,137.50486170169705
2024-05-26 15:37:06,135.32459690810694
2024-05-26 15:37:06,135.15391414702276
2024-05-26 15:37:06,136.15707003006884
2024-05-26 15:37:06,136.8539209758625
2024-05-26 15:37:06,137.4041823149615
2024-05-26 15:37:06,137.92707511866553
2024-05-26 15:37:06,138.1462566246342
2024-05-26 15:37:06,137.92387158097102
2024-05-26 15:37:06,137.44341003584077
2024-05-26 15:37:06,136.5121072062599
2024-05-26 15:37:06,135.2263461635682
2024-05-26 15:37:06,135.38631469417098
2024-05-26 15:37:06,138.05815177729983
2024-05-26 15:37:06,142.13003659856736
2024-05-26 15:37:06,145.53042014710394
2024-05-26 15:37:06,147.45300222106988
2024-05-26 15:37:06,148.83283433438544
2024-05-26 15:37:06,150.77542802113663
2024-05-26 15:37:06,154.18328812137796
2024-05-26 15:37:06,158.23818535787402
2024-05-26 15:37:06,161.88087689009112
2024-05-26 15:37:06,164.7265649434979
2024-05-26 15:37:06,163.35047947590772
2024-05-26 15:37:06,154.64013223689622
2024-05-26 15:37:06,141.9384308242324
2024-05-26 15:37:06,132.13114767873464
2024-05-26 15:37:06,129.4055681167255
2024-05-26 15:37:06,133.0951650715271
2024-05-26 15:37:06,140.31258749957792
2024-05-26 15:37:06,148.12090207855957
2024-05-26 15:37:06,153.19238609227946
2024-05-26 15:37:06,153.66689577704872
2024-05-26 15:37:06,151.03622343780668
2024-05-26 15:37:06,148.44374129748044
2024-05-26 15:37:06,147.81413572869496
2024-05-26 15:37:06,148.13648804468886
2024-05-26 15:37:06,146.81070620495285
2024-05-26 15:37:06,144.10570560723383
2024-05-26 15:37:06,143.28620619837568
2024-05-26 15:37:06,144.59362370309657
2024-05-26 15:37:06,145.5718306032371
2024-05-26 15:37:06,146.3182556515585
2024-05-26 15:37:06,147.50892625234926
2024-05-26 15:37:06,147.89929014099
2024-05-26 15:37:06,147.03960668275738
2024-05-26 15:37:06,145.93610124683968
2024-05-26 15:37:06,145.1878844475426
2024-05-26 15:37:06,144.9207129075411
2024-05-26 15:37:06,145.38946590818898
2024-05-26 15:37:06,146.66197596023068
2024-05-26 15:37:06,148.08657480430878
2024-05-26 15:37:06,149.5914977391724
2024-05-26 15:37:06,151.44173710376822
2024-05-26 15:37:06,152.88051141398526
2024-05-26 15:37:06,153.57299184611574
2024-05-26 15:37:06,154.02578750812933
2024-05-26 15:37:06,154.42581566822878
2024-05-26 15:37:06,154.22531791214604
2024-05-26 15:37:06,153.29857332542625
2024-05-26 15:37:06,152.33371411333712
2024-05-26 15:37:06,151.24183292332114
2024-05-26 15:37:06,150.21127834907065
2024-05-26 15:37:06,150.36272605451913
2024-05-26 15:37:06,151.86493475069483
2024-05-26 15:37:06,154.5318647008506
2024-05-26 15:37:06,158.16821080003433
2024-05-26 15:37:06,161.38433411992057
2024-05-26 15:37:06,162.25466851327275
2024-05-26 15:37:06,160.9205016299811
2024-05-26 15:37:06,159.66768085158122
2024-05-26 15:37:06,159.5695243127538
2024-05-26 15:37:06,159.87998719106068
2024-05-26 15:37:06,160.03654155153242
2024-05-26 15:37:06,159.9577707203206
2024-05-26 15:37:06,159.75307279793768
2024-05-26 15:37:06,159.40378919446084
2024-05-26 15:37:06,158.2256545210402
2024-05-26 15:37:06,155.99816693599814
2024-05-26 15:37:06,153.24641046414746
2024-05-26 15:37:06,150.33321551140423
2024-05-26 15:37:06,148.04120038803794
2024-05-26 15:37:06,147.63057041507844
2024-05-26 15:37:06,149.06434595728672
2024-05-26 15:37:06,150.0050719682588
2024-05-26 15:37:06,148.5773858947751
2024-05-26 15:37:06,145.6504251018599
2024-05-26 15:37:06,143.26365063707104
2024-05-26 15:37:06,142.33493748746122
2024-05-26 15:37:06,142.30363299305245
2024-05-26 15:37:06,142.4880798953358
2024-05-26 15:37:06,142.62675596446525
2024-05-26 15:37:06,143.00878645893852
2024-05-26 15:37:06,143.80076078178675
2024-05-26 15:37:06,144.1416753821191
2024-05-26 15:37:06,143.86676291505452
2024-05-26 15:37:06,143.83513251376706
2024-05-26 15:37:06,143.94698417619225
2024-05-26 15:37:06,143.50446482382324
2024-05-26 15:37:07,142.5621987691878
2024-05-26 15:37:07,142.2079386610523
2024-05-26 15:37:07,143.06568969244313
2024-05-26 15:37:07,143.793886036044
2024-05-26 15:37:07,143.4007024456239
2024-05-26 15:37:07,142.5932428829591
2024-05-26 15:37:07,142.47604194771995
2024-05-26 15:37:07,143.85181578210657
2024-05-26 15:37:07,145.56899694577174
2024-05-26 15:37:07,145.43023054843292
2024-05-26 15:37:07,143.52496173034808
2024-05-26 15:37:07,141.88879587600076
2024-05-26 15:37:07,141.57678547278903
2024-05-26 15:37:07,141.70703104748506
2024-05-26 15:37:07,141.64281436337376
2024-05-26 15:37:07,141.29290089768887
2024-05-26 15:37:07,140.39625111882143
2024-05-26 15:37:07,139.85063482039612
2024-05-26 15:37:07,140.13260636283093
2024-05-26 15:37:07,140.01798116578945
2024-05-26 15:37:07,138.97151689398441
2024-05-26 15:37:07,138.28363890487216
2024-05-26 15:37:07,138.97534495447687
2024-05-26 15:37:07,139.8179086344713
2024-05-26 15:37:07,139.5067070944696
2024-05-26 15:37:07,138.51139691275947
2024-05-26 15:37:07,137.96831162416382
2024-05-26 15:37:07,138.48267436172014
2024-05-26 15:37:07,139.34791260773997
2024-05-26 15:37:07,139.87146178164375
2024-05-26 15:37:07,140.20709013838916
2024-05-26 15:37:07,140.62759556504176
2024-05-26 15:37:07,141.06381579686803
2024-05-26 15:37:07,141.0770028694092
2024-05-26 15:37:07,140.62438920493648
2024-05-26 15:37:07,139.72113862836878
2024-05-26 15:37:07,138.56701673563867
2024-05-26 15:37:07,138.1280904458076
2024-05-26 15:37:07,138.63581572227133
2024-05-26 15:37:07,139.3784894375545
2024-05-26 15:37:07,140.17635682422616
2024-05-26 15:37:07,141.17534662082141
2024-05-26 15:37:07,142.07114105652144
2024-05-26 15:37:07,142.44060032669466
2024-05-26 15:37:07,142.17474827045004
2024-05-26 15:37:07,140.95891753491654
2024-05-26 15:37:07,138.76129104856133
2024-05-26 15:37:07,136.7345682505192
2024-05-26 15:37:07,135.85379118422466
2024-05-26 15:37:07,135.87752993295862
2024-05-26 15:37:07,136.1280305835187
2024-05-26 15:37:07,136.285464648286
2024-05-26 15:37:07,136.37931481937278
2024-05-26 15:37:07,136.44117895866256
2024-05-26 15:37:07,136.5622638181033
2024-05-26 15:37:07,136.84336507304593
2024-05-26 15:37:07,136.62837781203513
2024-05-26 15:37:07,135.76850955725658
2024-05-26 15:37:07,135.93174960247654
2024-05-26 15:37:07,137.8848963745173
2024-05-26 15:37:07,140.21646338714157
2024-05-26 15:37:07,141.74563977739717
2024-05-26 15:37:07,143.09915526452818
2024-05-26 15:37:07,145.47467084274822
2024-05-26 15:37:07,149.3892684963291
2024-05-26 15:37:07,154.98433793141825
2024-05-26 15:37:07,161.22439454755587
2024-05-26 15:37:07,166.43600552811324
2024-05-26 15:37:07,169.355835858925
2024-05-26 15:37:07,166.89676101997586
2024-05-26 15:37:07,156.3393474827242
2024-05-26 15:37:07,141.15288607917984
2024-05-26 15:37:07,128.6978094727097
2024-05-26 15:37:07,123.29778850529107
2024-05-26 15:37:07,124.77876296222836
2024-05-26 15:37:07,130.46827933826117
2024-05-26 15:37:07,136.43882030355567
2024-05-26 15:37:07,139.4545545506154
2024-05-26 15:37:07,139.10651096932227
2024-05-26 15:37:07,137.23992362149613
2024-05-26 15:37:07,135.6647501677077
2024-05-26 15:37:07,135.22234570937331
2024-05-26 15:37:07,135.6301491680083
2024-05-26 15:37:07,135.95618217550313
2024-05-26 15:37:07,136.01695706993917
2024-05-26 15:37:07,136.5054534730556
2024-05-26 15:37:07,137.7279493241832
2024-05-26 15:37:07,139.05285843423394
2024-05-26 15:37:07,139.92998641766798
2024-05-26 15:37:07,140.322039560416
2024-05-26 15:37:07,140.03709980435727
2024-05-26 15:37:07,139.1254895221053
2024-05-26 15:37:07,138.0214634396549
2024-05-26 15:37:07,136.85769295507578
2024-05-26 15:37:07,136.14745429892668
2024-05-26 15:37:07,136.5935944141328
2024-05-26 15:37:07,137.81957960140073
2024-05-26 15:37:07,138.7952650551913
2024-05-26 15:37:07,139.05623209740088
2024-05-26 15:37:07,139.13784059524107
2024-05-26 15:37:07,139.4966669428374
2024-05-26 15:37:07,140.16303069692006
2024-05-26 15:37:07,140.92724891150866
2024-05-26 15:37:07,141.22191814760748
2024-05-26 15:37:07,141.0431373561275
2024-05-26 15:37:07,141.2182522039271
2024-05-26 15:37:07,142.45654690788527
2024-05-26 15:37:07,144.15666551339208
2024-05-26 15:37:07,145.69240607700138
2024-05-26 15:37:07,147.08275502149385
2024-05-26 15:37:07,147.45728820413106
2024-05-26 15:37:07,146.78518282639473
2024-05-26 15:37:07,146.1931500018677
2024-05-26 15:37:07,146.03721056354874
2024-05-26 15:37:07,146.3286996093261
2024-05-26 15:37:07,147.3372161500363
2024-05-26 15:37:07,148.7104357197933
2024-05-26 15:37:07,149.37242575222584
2024-05-26 15:37:07,149.17536324434553
2024-05-26 15:37:07,148.51292999910487
2024-05-26 15:37:07,147.02266111121304
2024-05-26 15:37:07,144.84733947739852
2024-05-26 15:37:07,143.3678440829481
2024-05-26 15:37:07,142.99258005692963
2024-05-26 15:37:07,142.34650251117657
2024-05-26 15:37:07,140.7048164978129
2024-05-26 15:37:07,138.73851688065298
2024-05-26 15:37:07,137.04766676419862
2024-05-26 15:37:07,135.427318208221
2024-05-26 15:37:07,133.77658835685628
2024-05-26 15:37:07,132.40860515421235
2024-05-26 15:37:07,131.14759996641473
2024-05-26 15:37:07,129.72323042792502
2024-05-26 15:37:07,128.58392076976665
2024-05-26 15:37:07,128.45083437299854
2024-05-26 15:37:07,129.03977017250725
2024-05-26 15:37:07,129.46793530066208
2024-05-26 15:37:07,129.3610783195763
2024-05-26 15:37:07,128.87762784216963
2024-05-26 15:37:07,128.4980410304139
2024-05-26 15:37:07,128.08491540830212
2024-05-26 15:37:07,127.3981140077744
2024-05-26 15:37:07,127.16545567072504
2024-05-26 15:37:07,127.62932156705851
2024-05-26 15:37:07,128.32793763164403
2024-05-26 15:37:07,128.90800326538496
2024-05-26 15:37:07,129.17621180280787
2024-05-26 15:37:07,129.27720260511924
2024-05-26 15:37:07,129.24356151061943
2024-05-26 15:37:07,129.03151483782108
2024-05-26 15:37:07,128.59755820209506
2024-05-26 15:37:07,127.98731340327754
2024-05-26 15:37:07,127.54226809731925
2024-05-26 15:37:07,127.51170105408474
2024-05-26 15:37:07,128.12087057413567
2024-05-26 15:37:07,129.3611029081862
2024-05-26 15:37:07,130.75449565186773
2024-05-26 15:37:07,131.78802846272418
2024-05-26 15:37:07,131.7045553169909
2024-05-26 15:37:07,130.4365458398962
2024-05-26 15:37:07,128.90640762056069
2024-05-26 15:37:07,127.3945874451936
2024-05-26 15:37:07,126.25886821239115
2024-05-26 15:37:07,126.13562252918443
2024-05-26 15:37:07,126.59245395251669
2024-05-26 15:37:07,126.73641451937978
2024-05-26 15:37:07,126.92899228531545
2024-05-26 15:37:07,127.77535848759712
2024-05-26 15:37:07,128.53469031556244
2024-05-26 15:37:07,128.89405720374708
2024-05-26 15:37:07,126.93140458295805
2024-05-26 15:37:07,124.7549063195258
2024-05-26 15:37:07,130.1284351105948
2024-05-26 15:37:07,138.0468971617426
2024-05-26 15:37:07,136.02178027863687
2024-05-26 15:37:07,125.80505859705175
2024-05-26 15:37:07,120.38221725395006
2024-05-26 15:37:07,125.92004482158943
2024-05-26 15:37:07,134.4729477659402
2024-05-26 15:37:07,135.30157763585746
2024-05-26 15:37:07,129.14122268048206
2024-05-26 15:37:07,126.08817150189498
2024-05-26 15:37:07,130.29922816881907
2024-05-26 15:37:07,135.4115457691678
2024-05-26 15:37:07,134.43332536031656
2024-05-26 15:37:07,128.22098253297787
2024-05-26 15:37:07,123.89808271050356
2024-05-26 15:37:07,125.49734833723218
2024-05-26 15:37:07,128.9393785510208
2024-05-26 15:37:07,128.1134989856432
2024-05-26 15:37:07,123.56041459551304
2024-05-26 15:37:07,121.36896992320311
2024-05-26 15:37:07,124.09454645112076
2024-05-26 15:37:07,128.01011206983702
2024-05-26 15:37:07,128.81010529501648
2024-05-26 15:37:07,126.89167219092968
2024-05-26 15:37:07,125.64969944712166
2024-05-26 15:37:07,126.91196925889255
2024-05-26 15:37:07,129.2389205770737
2024-05-26 15:37:07,129.61410693406617
2024-05-26 15:37:07,128.21792033464737
2024-05-26 15:37:07,128.3951811324824
2024-05-26 15:37:07,131.21664462382248
2024-05-26 15:37:07,134.55727588519727
2024-05-26 15:37:07,136.76108467893482
2024-05-26 15:37:07,138.84050367043585
2024-05-26 15:37:07,143.22537242394787
2024-05-26 15:37:07,150.9575609448915
2024-05-26 15:37:07,160.12940760560141
2024-05-26 15:37:07,166.10130358340237
2024-05-26 15:37:07,163.9717317958094
2024-05-26 15:37:07,153.11879292091766
2024-05-26 15:37:07,138.42604223485446
2024-05-26 15:37:07,125.53076084715174
2024-05-26 15:37:07,117.6191075417821
2024-05-26 15:37:07,115.71942188185898
2024-05-26 15:37:07,118.93884967865802
2024-05-26 15:37:07,124.46764994433892
2024-05-26 15:37:07,128.33871878251475
2024-05-26 15:37:07,128.5965281274201
2024-05-26 15:37:07,126.71644209801255
2024-05-26 15:37:07,125.5583669984232
2024-05-26 15:37:07,126.30656626181039
2024-05-26 15:37:07,127.15173143682631
2024-05-26 15:37:07,126.84444543808995
2024-05-26 15:37:07,126.67210188492149
2024-05-26 15:37:07,127.43893640659641
2024-05-26 15:37:07,128.1261765718232
2024-05-26 15:37:07,127.84062978691767
2024-05-26 15:37:07,126.9143914113018
2024-05-26 15:37:07,126.34509535023678
2024-05-26 15:37:07,127.37160172511499
2024-05-26 15:37:07,129.68377717768016
2024-05-26 15:37:07,130.89206811576716
2024-05-26 15:37:07,130.35793212325092
2024-05-26 15:37:07,130.0649268789268
2024-05-26 15:37:07,131.0206514740467
2024-05-26 15:37:07,132.19825818627967
2024-05-26 15:37:07,132.4809012245203
2024-05-26 15:37:07,132.19296433509044
2024-05-26 15:37:07,132.164328294048
2024-05-26 15:37:07,132.78622629995243
2024-05-26 15:37:07,133.75912528760645
2024-05-26 15:37:07,133.94043269878048
2024-05-26 15:37:07,133.3939757017184
2024-05-26 15:37:08,133.21976110948708
2024-05-26 15:37:08,133.48706832878227
2024-05-26 15:37:08,134.03890885499092
2024-05-26 15:37:08,135.61816726241562
2024-05-26 15:37:08,137.96280930226436
2024-05-26 15:37:08,139.1793496028052
2024-05-26 15:37:08,138.93730749852256
2024-05-26 15:37:08,139.03179762483654
2024-05-26 15:37:08,139.87491179599638
2024-05-26 15:37:08,140.3549883225257
2024-05-26 15:37:08,140.54138279379035
2024-05-26 15:37:08,140.83497593098485
2024-05-26 15:37:08,140.9540703982154
2024-05-26 15:37:08,140.660173348092
2024-05-26 15:37:08,139.96333368067565
2024-05-26 15:37:08,138.9395631477714
2024-05-26 15:37:08,137.70016044589275
2024-05-26 15:37:08,136.73917589880503
2024-05-26 15:37:08,136.20666506449658
2024-05-26 15:37:08,135.38840514843423
2024-05-26 15:37:08,134.27913664259188
2024-05-26 15:37:08,133.43297788430323
2024-05-26 15:37:08,132.911208980303
2024-05-26 15:37:08,132.54139534611846
2024-05-26 15:37:08,131.94513639725287
2024-05-26 15:37:08,130.89656245956763
2024-05-26 15:37:08,129.42997877324063
2024-05-26 15:37:08,127.95667640627951
2024-05-26 15:37:08,126.7483264223369
2024-05-26 15:37:08,125.34465398204034
2024-05-26 15:37:08,123.83328589780038
2024-05-26 15:37:08,122.73993368809302
2024-05-26 15:37:08,122.15507507474491
2024-05-26 15:37:08,122.17962264075594
2024-05-26 15:37:08,122.6138066152447
2024-05-26 15:37:08,122.91254209357052
2024-05-26 15:37:08,122.88111770420808
2024-05-26 15:37:08,122.72165029488369
2024-05-26 15:37:08,122.4209931387255
2024-05-26 15:37:08,122.15369428047546
2024-05-26 15:37:08,122.67586576481
2024-05-26 15:37:08,123.99444809661732
2024-05-26 15:37:08,125.0493428811507
2024-05-26 15:37:08,125.08182143400578
2024-05-26 15:37:08,124.32784986579072
2024-05-26 15:37:08,123.26426588865189
2024-05-26 15:37:08,122.3404322165315
2024-05-26 15:37:08,122.25578217563206
2024-05-26 15:37:08,122.65422359197792
2024-05-26 15:37:08,122.50670746486702
2024-05-26 15:37:08,122.55157935313359
2024-05-26 15:37:08,123.49768335259955
2024-05-26 15:37:08,124.42241539468749
2024-05-26 15:37:08,124.8475539194873
2024-05-26 15:37:08,124.8458554596069
2024-05-26 15:37:08,124.45368414281471
2024-05-26 15:37:08,123.85306085044634
2024-05-26 15:37:08,123.56534021504444
2024-05-26 15:37:08,124.30117067165189
2024-05-26 15:37:08,125.40094795558699
2024-05-26 15:37:08,125.62672132243058
2024-05-26 15:37:08,125.30151397297101
2024-05-26 15:37:08,124.83887384091904
2024-05-26 15:37:08,123.86466211812849
2024-05-26 15:37:08,122.96881386010719
2024-05-26 15:37:08,123.07969530624541
2024-05-26 15:37:08,123.79475449717523
2024-05-26 15:37:08,124.29570891799847
2024-05-26 15:37:08,124.70903030634298
2024-05-26 15:37:08,125.35157537525862
2024-05-26 15:37:08,126.13065648606525
2024-05-26 15:37:08,127.00637402172515
2024-05-26 15:37:08,127.42923696300866
2024-05-26 15:37:08,127.06000906539465
2024-05-26 15:37:08,126.71999348323887
2024-05-26 15:37:08,127.2743754592135
2024-05-26 15:37:08,128.02742390850713
2024-05-26 15:37:08,127.84682907344637
2024-05-26 15:37:08,127.17971760057091
2024-05-26 15:37:08,127.10345419289338
2024-05-26 15:37:08,127.91580831190048
2024-05-26 15:37:08,128.85187816510924
2024-05-26 15:37:08,129.4179846390527
2024-05-26 15:37:08,129.71229519409889
2024-05-26 15:37:08,129.59443575253894
2024-05-26 15:37:08,129.14496513046143
2024-05-26 15:37:08,128.24371663709948
2024-05-26 15:37:08,126.8142405591926
2024-05-26 15:37:08,125.71866738053059
2024-05-26 15:37:08,125.32712028780273
2024-05-26 15:37:08,124.98667115814303
2024-05-26 15:37:08,124.5404353789317
2024-05-26 15:37:08,124.6264397802652
2024-05-26 15:37:08,124.87659883602393
2024-05-26 15:37:08,124.45090135455526
2024-05-26 15:37:08,123.98556006585423
2024-05-26 15:37:08,124.33781396060974
2024-05-26 15:37:08,125.43588600987553
2024-05-26 15:37:08,127.08691129458762
2024-05-26 15:37:08,129.05267769975674
2024-05-26 15:37:08,130.61397770485712
2024-05-26 15:37:08,131.8088060488834
2024-05-26 15:37:08,133.12536544010635
2024-05-26 15:37:08,134.69726706658474
2024-05-26 15:37:08,137.53034594645928
2024-05-26 15:37:08,142.5442633793699
2024-05-26 15:37:08,149.3398271493155
2024-05-26 15:37:08,156.73888695114755
2024-05-26 15:37:08,162.8666143593593
2024-05-26 15:37:08,164.35217258278283
2024-05-26 15:37:08,157.7144355454199
2024-05-26 15:37:08,143.6306327461187
2024-05-26 15:37:08,127.86249328286911
2024-05-26 15:37:08,116.8145038781705
2024-05-26 15:37:08,113.09072522948408
2024-05-26 15:37:08,115.48803972021237
2024-05-26 15:37:08,120.98499521662686
2024-05-26 15:37:08,126.07168531527691
2024-05-26 15:37:08,128.34228392998506
2024-05-26 15:37:08,127.9455796233299
2024-05-26 15:37:08,126.80762855585293
2024-05-26 15:37:08,126.76794022415368
2024-05-26 15:37:08,127.55398181662838
2024-05-26 15:37:08,126.90972696974481
2024-05-26 15:37:08,124.79319648638082
2024-05-26 15:37:08,123.59974183446924
2024-05-26 15:37:08,124.31867969101492
2024-05-26 15:37:08,125.73533920615813
2024-05-26 15:37:08,126.52048225085728
2024-05-26 15:37:08,126.69700211261306
2024-05-26 15:37:08,126.61213831418556
2024-05-26 15:37:08,126.23357677317983
2024-05-26 15:37:08,126.06973287431009
2024-05-26 15:37:08,126.26247704030956
2024-05-26 15:37:08,126.42532850962628
2024-05-26 15:37:08,127.35370353066656
2024-05-26 15:37:08,129.39639641079535
2024-05-26 15:37:08,131.09237562983455
2024-05-26 15:37:08,131.22701212125827
2024-05-26 15:37:08,130.49489786044975
2024-05-26 15:37:08,129.9834551423918
2024-05-26 15:37:08,129.7059455942757
2024-05-26 15:37:08,129.96309982749491
2024-05-26 15:37:08,131.0221816588965
2024-05-26 15:37:08,132.15643151176909
2024-05-26 15:37:08,133.0127386297914
2024-05-26 15:37:08,133.78660716244298
2024-05-26 15:37:08,134.2220743390577
2024-05-26 15:37:08,134.29247905091523
2024-05-26 15:37:08,134.89177701889088
2024-05-26 15:37:08,136.25230497613745
2024-05-26 15:37:08,137.383907195825
2024-05-26 15:37:08,137.84411686285188
2024-05-26 15:37:08,137.61597964316158
2024-05-26 15:37:08,136.95342835860487
2024-05-26 15:37:08,136.92363810161078
2024-05-26 15:37:08,137.51054933714966
2024-05-26 15:37:08,137.71066592440468
2024-05-26 15:37:08,137.54978268885498
2024-05-26 15:37:08,137.42739562598643
2024-05-26 15:37:08,136.99677566986267
2024-05-26 15:37:08,136.05936824299695
2024-05-26 15:37:08,135.3947345365069
2024-05-26 15:37:08,134.98705237801815
2024-05-26 15:37:08,133.90082989503236
2024-05-26 15:37:08,132.6099363460476
2024-05-26 15:37:08,131.80296357360018
2024-05-26 15:37:08,130.84876884697982
2024-05-26 15:37:08,129.60379073747478
2024-05-26 15:37:08,128.75959293447258
2024-05-26 15:37:08,128.2108938802789
2024-05-26 15:37:08,127.0260194454977
2024-05-26 15:37:08,124.9393234968821
2024-05-26 15:37:08,122.33373055095394
2024-05-26 15:37:08,119.67191705723357
2024-05-26 15:37:08,118.1661514394006
2024-05-26 15:37:08,118.59190738374573
2024-05-26 15:37:08,119.95496313176204
2024-05-26 15:37:08,121.00945574764708
2024-05-26 15:37:08,121.42207617379776
2024-05-26 15:37:08,120.97980051464344
2024-05-26 15:37:08,119.846735535504
2024-05-26 15:37:08,119.05946269211931
2024-05-26 15:37:08,119.50213342981964
2024-05-26 15:37:08,120.7832490827894
2024-05-26 15:37:08,121.97381136047441
2024-05-26 15:37:08,122.71311659127788
2024-05-26 15:37:08,122.69185946062089
2024-05-26 15:37:08,122.00979365294032
2024-05-26 15:37:08,120.9779374468467
2024-05-26 15:37:08,119.65485803595548
2024-05-26 15:37:08,118.59685378582789
2024-05-26 15:37:08,118.29309747129271
2024-05-26 15:37:08,118.69298755501578
2024-05-26 15:37:08,119.0670691612872
2024-05-26 15:37:08,118.85833981338037
2024-05-26 15:37:08,118.75416657872694
2024-05-26 15:37:08,118.92954875521467
2024-05-26 15:37:08,119.01065855032004
2024-05-26 15:37:08,119.02075511741384
2024-05-26 15:37:08,118.69409979452148
2024-05-26 15:37:08,118.0578167612314
2024-05-26 15:37:08,117.50469366306861
2024-05-26 15:37:08,117.28480308602344
2024-05-26 15:37:08,117.29865199605426
2024-05-26 15:37:08,117.43298753188041
2024-05-26 15:37:08,118.02830055244034
2024-05-26 15:37:08,118.69057424968747
2024-05-26 15:37:08,118.94706419035498
2024-05-26 15:37:08,119.01165547659143
2024-05-26 15:37:08,118.97162161779693
2024-05-26 15:37:08,118.99680077689422
2024-05-26 15:37:08,119.16686948057591
2024-05-26 15:37:08,119.3367017501995
2024-05-26 15:37:08,119.31583316138094
2024-05-26 15:37:08,118.88494077507943
2024-05-26 15:37:08,118.30188251262389
2024-05-26 15:37:08,118.10071572281458
2024-05-26 15:37:08,118.43758796634576
2024-05-26 15:37:08,119.32534651428955
2024-05-26 15:37:08,120.14036091886923
2024-05-26 15:37:08,120.05560707641595
2024-05-26 15:37:08,119.54940695178642
2024-05-26 15:37:08,119.29939932294923
2024-05-26 15:37:08,119.0758591324501
2024-05-26 15:37:08,118.99958274332143
2024-05-26 15:37:08,119.85214677053472
2024-05-26 15:37:08,121.0669183123181
2024-05-26 15:37:08,120.78752693913931
2024-05-26 15:37:08,119.08821355206001
2024-05-26 15:37:08,117.7176902556001
2024-05-26 15:37:08,116.91338459814298
2024-05-26 15:37:08,115.84042331788393
2024-05-26 15:37:08,114.9089701325316
2024-05-26 15:37:08,114.89029285796083
2024-05-26 15:37:08,114.96329736229652
2024-05-26 15:37:08,114.97470669291857
2024-05-26 15:37:08,115.5845002719581
2024-05-26 15:37:08,115.69456162959135
2024-05-26 15:37:08,114.94509506083989
2024-05-26 15:37:08,114.47228512622007
2024-05-26 15:37:08,114.65069022468602
2024-05-26 15:37:08,115.05194928061064
2024-05-26 15:37:08,115.34394451397631
2024-05-26 15:37:08,115.88594408149832
2024-05-26 15:37:08,116.68704008746714
2024-05-26 15:37:08,117.55838609078478
2024-05-26 15:37:08,118.73963911061995
2024-05-26 15:37:08,120.20461389860338
2024-05-26 15:37:08,122.75576738351467
2024-05-26 15:37:08,127.15341491437583
2024-05-26 15:37:08,132.52607039809956
2024-05-26 15:37:09,137.68162928867167
2024-05-26 15:37:09,141.6081060756511
2024-05-26 15:37:09,142.43837644772975
2024-05-26 15:37:09,137.39085590956265
2024-05-26 15:37:09,126.01332244638103
2024-05-26 15:37:09,112.7032511229489
2024-05-26 15:37:09,103.11739102045773
2024-05-26 15:37:09,99.78301278080774
2024-05-26 15:37:09,102.21793061138817
2024-05-26 15:37:09,107.57573472934864
2024-05-26 15:37:09,111.94473146103563
2024-05-26 15:37:09,113.75259091291801
2024-05-26 15:37:09,113.87648524138638
2024-05-26 15:37:09,113.19406387609004
2024-05-26 15:37:09,112.34005351745925
2024-05-26 15:37:09,111.85850969466334
2024-05-26 15:37:09,111.43822026511286
2024-05-26 15:37:09,110.82903050471923
2024-05-26 15:37:09,110.72657256841272
2024-05-26 15:37:09,111.45883506333601
2024-05-26 15:37:09,112.59603790939381
2024-05-26 15:37:09,113.54442826951255
2024-05-26 15:37:09,113.94393105473918
2024-05-26 15:37:09,113.79711306197932
2024-05-26 15:37:09,113.14501865487024
2024-05-26 15:37:09,112.45066988192922
2024-05-26 15:37:09,111.99987764666017
2024-05-26 15:37:09,111.75460166330161
2024-05-26 15:37:09,112.44335953957838
2024-05-26 15:37:09,114.19794276892543
2024-05-26 15:37:09,115.8076176203391
2024-05-26 15:37:09,116.34862234569738
2024-05-26 15:37:09,116.02627377770136
2024-05-26 15:37:09,115.5497949714318
2024-05-26 15:37:09,115.36076564473984
2024-05-26 15:37:09,115.56849476860744
2024-05-26 15:37:09,115.80994908536141
2024-05-26 15:37:09,115.7275559300272
2024-05-26 15:37:09,115.8846123955087
2024-05-26 15:37:09,116.89748671068119
2024-05-26 15:37:09,118.44623699014144
2024-05-26 15:37:09,119.78236602462958
2024-05-26 15:37:09,120.34156078443168
2024-05-26 15:37:09,120.17591534816366
2024-05-26 15:37:09,119.7986349241178
2024-05-26 15:37:09,120.00211193006635
2024-05-26 15:37:09,120.97521829512499
2024-05-26 15:37:09,121.77774241034226
2024-05-26 15:37:09,122.34680331554138
2024-05-26 15:37:09,123.11391473239892
2024-05-26 15:37:09,123.22741035772384
2024-05-26 15:37:09,122.56097286509697
2024-05-26 15:37:09,122.24893689267256
2024-05-26 15:37:09,121.99457750637917
2024-05-26 15:37:09,120.6897102546495
2024-05-26 15:37:09,118.85977834850821
2024-05-26 15:37:09,117.6677211749544
2024-05-26 15:37:09,116.739090001698
2024-05-26 15:37:09,115.38175269961411
2024-05-26 15:37:09,114.26572307889315
2024-05-26 15:37:09,113.6192965663353
2024-05-26 15:37:09,112.92597542373011
2024-05-26 15:37:09,112.04871236566909
2024-05-26 15:37:09,110.86123193403935
2024-05-26 15:37:09,109.7023634674074
2024-05-26 15:37:09,108.80960506393255
2024-05-26 15:37:09,107.68098150224348
2024-05-26 15:37:09,106.10000561097685
2024-05-26 15:37:09,104.83676395075086
2024-05-26 15:37:09,104.67536021765005
2024-05-26 15:37:09,104.83102029512675
2024-05-26 15:37:09,104.4391929101497
2024-05-26 15:37:09,103.85410521273043
2024-05-26 15:37:09,103.48021440046237
2024-05-26 15:37:09,103.59114181216651
2024-05-26 15:37:09,104.37302289098572
2024-05-26 15:37:09,105.52726362600941
2024-05-26 15:37:09,106.53465230737253
2024-05-26 15:37:09,106.89318408342663
2024-05-26 15:37:09,106.38228272570484
2024-05-26 15:37:09,105.48022869911978
2024-05-26 15:37:09,104.91742580479847
2024-05-26 15:37:09,105.10068768329612
2024-05-26 15:37:09,105.93054454045362
2024-05-26 15:37:09,106.81633998096274
2024-05-26 15:37:09,107.35910755425625
2024-05-26 15:37:09,107.68963347632373
2024-05-26 15:37:09,107.9252772092256
2024-05-26 15:37:09,108.2016033877886
2024-05-26 15:37:09,108.5756091022275
2024-05-26 15:37:09,108.25714807147659
2024-05-26 15:37:09,106.91181202075484
2024-05-26 15:37:09,105.73323425439219
2024-05-26 15:37:09,105.73003483702445
2024-05-26 15:37:09,106.61021404557323
2024-05-26 15:37:09,107.49127461091344
2024-05-26 15:37:09,107.94050517630086
2024-05-26 15:37:09,107.93817585192875
2024-05-26 15:37:09,107.58216566905571
2024-05-26 15:37:09,107.2100628943809
2024-05-26 15:37:09,106.78951992591868
2024-05-26 15:37:09,105.96443317151997
2024-05-26 15:37:09,105.00910762512682
2024-05-26 15:37:09,104.48807799310133
2024-05-26 15:37:09,104.46080824964905
2024-05-26 15:37:09,105.02819057816986
2024-05-26 15:37:09,106.1048369052304
2024-05-26 15:37:09,106.77620782026
2024-05-26 15:37:09,106.57770941174017
2024-05-26 15:37:09,106.42992232458984
2024-05-26 15:37:09,106.87597994608682
2024-05-26 15:37:09,106.87083799407709
2024-05-26 15:37:09,106.45949213352901
2024-05-26 15:37:09,106.72340671748074
2024-05-26 15:37:09,107.29988254098022
2024-05-26 15:37:09,107.57347159397068
2024-05-26 15:37:09,107.73435916030688
2024-05-26 15:37:09,108.00468138795566
2024-05-26 15:37:09,108.08212727859583
2024-05-26 15:37:09,107.923595317514
2024-05-26 15:37:09,107.79341322091034
2024-05-26 15:37:09,107.52759497758652
2024-05-26 15:37:09,107.31135624059856
2024-05-26 15:37:09,107.40042964946167
2024-05-26 15:37:09,107.94184296590782
2024-05-26 15:37:09,109.13001033456428
2024-05-26 15:37:09,110.51099467428904
2024-05-26 15:37:09,111.46327682652561
2024-05-26 15:37:09,111.62001473363418
2024-05-26 15:37:09,110.78018796541781
2024-05-26 15:37:09,108.99047427459483
2024-05-26 15:37:09,106.57695128619525
2024-05-26 15:37:09,104.46600406350298
2024-05-26 15:37:09,103.7769324527003
2024-05-26 15:37:09,104.43561098439227
2024-05-26 15:37:09,105.45428843163698
2024-05-26 15:37:09,106.34016865091476
2024-05-26 15:37:09,106.92323156705037
2024-05-26 15:37:09,106.6517723427367
2024-05-26 15:37:09,105.47376610956681
2024-05-26 15:37:09,104.59200551585894
2024-05-26 15:37:09,104.66118256338898
2024-05-26 15:37:09,105.41101776332951
2024-05-26 15:37:09,107.355572087643
2024-05-26 15:37:09,110.45558861872084
2024-05-26 15:37:09,113.14409848480828
2024-05-26 15:37:09,114.73124946343749
2024-05-26 15:37:09,116.15109304685375
2024-05-26 15:37:09,118.51299676151604
2024-05-26 15:37:09,122.43006036847584
2024-05-26 15:37:09,128.0900414260808
2024-05-26 15:37:09,134.75384476447564
2024-05-26 15:37:09,139.91052814465587
2024-05-26 15:37:09,140.22089875970718
2024-05-26 15:37:09,133.49589117821102
2024-05-26 15:37:09,121.0749044797889
2024-05-26 15:37:09,108.39141451624111
2024-05-26 15:37:09,100.67288105795382
2024-05-26 15:37:09,98.81823137459558
2024-05-26 15:37:09,100.8110106619815
2024-05-26 15:37:09,104.87543834374495
2024-05-26 15:37:09,108.56667560124018
2024-05-26 15:37:09,109.48231538029363
2024-05-26 15:37:09,108.5146373873891
2024-05-26 15:37:09,107.73384044845932
2024-05-26 15:37:09,107.66122911946064
2024-05-26 15:37:09,107.83291137880695
2024-05-26 15:37:09,107.7308018805606
2024-05-26 15:37:09,107.59369668279881
2024-05-26 15:37:09,107.84842398446919
2024-05-26 15:37:09,108.4683872453186
2024-05-26 15:37:09,109.04122575471621
2024-05-26 15:37:09,109.04639387020718
2024-05-26 15:37:09,109.10667820271007
2024-05-26 15:37:09,110.03541240308397
2024-05-26 15:37:09,110.93848267472652
2024-05-26 15:37:09,110.64220610173163
2024-05-26 15:37:09,109.72933602222109
2024-05-26 15:37:09,109.41825405135612
2024-05-26 15:37:09,109.7572737452144
2024-05-26 15:37:09,110.4143645074941
2024-05-26 15:37:09,111.467035652557
2024-05-26 15:37:09,112.54852196730674
2024-05-26 15:37:09,113.43543891456888
2024-05-26 15:37:09,114.75406143582708
2024-05-26 15:37:09,116.06413563349153
2024-05-26 15:37:09,116.48705711915132
2024-05-26 15:37:09,116.52678408900773
2024-05-26 15:37:09,116.70470433467219
2024-05-26 15:37:09,116.82799575239135
2024-05-26 15:37:09,117.0802640776071
2024-05-26 15:37:09,118.20685907824773
2024-05-26 15:37:09,119.96088345200992
2024-05-26 15:37:09,121.39053835404698
2024-05-26 15:37:09,122.19352362791066
2024-05-26 15:37:09,122.12893546217136
2024-05-26 15:37:09,121.36346328446326
2024-05-26 15:37:09,120.59317685821505
2024-05-26 15:37:09,120.10225578939162
2024-05-26 15:37:09,120.01615890573504
2024-05-26 15:37:09,120.4726689621755
2024-05-26 15:37:09,121.49220769003195
2024-05-26 15:37:09,122.69445334341935
2024-05-26 15:37:09,123.49916121970685
2024-05-26 15:37:09,124.00412251226237
2024-05-26 15:37:09,124.24453630424091
2024-05-26 15:37:09,123.70569605377706
2024-05-26 15:37:09,122.42518985848218
2024-05-26 15:37:09,120.62072898720243
2024-05-26 15:37:09,118.25230528162419
2024-05-26 15:37:09,115.98719822428318
2024-05-26 15:37:09,114.74908814350167
2024-05-26 15:37:09,114.34669363107325
2024-05-26 15:37:09,114.26279460509024
2024-05-26 15:37:09,114.27817110352139
2024-05-26 15:37:09,113.73354259570455
2024-05-26 15:37:09,112.60198758303567
2024-05-26 15:37:09,111.59469880233203
2024-05-26 15:37:09,110.88085632590378
2024-05-26 15:37:09,110.39064367642995
2024-05-26 15:37:09,110.1759983018182
2024-05-26 15:37:09,110.4000135473203
2024-05-26 15:37:09,110.70919417687453
2024-05-26 15:37:09,110.53242018204165
2024-05-26 15:37:09,110.37365755703928
2024-05-26 15:37:09,110.50664542183945
2024-05-26 15:37:09,110.31212076683133
2024-05-26 15:37:09,109.83011923020821
2024-05-26 15:37:09,109.64957880184014
2024-05-26 15:37:09,109.91766914562821
2024-05-26 15:37:09,110.51920551025975
2024-05-26 15:37:09,111.24993291109276
2024-05-26 15:37:09,111.86320153385502
2024-05-26 15:37:09,112.13737913940996
2024-05-26 15:37:09,112.40212636154504
2024-05-26 15:37:09,113.01240438085077
2024-05-26 15:37:09,113.44125616669038
2024-05-26 15:37:09,113.6453263418945
2024-05-26 15:37:09,113.50735151600513
2024-05-26 15:37:09,112.67647151669514
2024-05-26 15:37:09,111.73876304093541
2024-05-26 15:37:09,111.42245610941808
2024-05-26 15:37:09,111.79748144840461
2024-05-26 15:37:10,112.13758194356738
2024-05-26 15:37:10,112.48513658060972
2024-05-26 15:37:10,112.92023296974048
2024-05-26 15:37:10,112.37067955915832
2024-05-26 15:37:10,111.39948692430241
2024-05-26 15:37:10,111.40633417946668
2024-05-26 15:37:10,112.20780446974231
2024-05-26 15:37:10,112.81764277285147
2024-05-26 15:37:10,112.77697212699712
2024-05-26 15:37:10,112.72938842784738
2024-05-26 15:37:10,112.8713969616482
2024-05-26 15:37:10,112.62228031294944
2024-05-26 15:37:10,112.21491917588428
2024-05-26 15:37:10,111.98336265738146
2024-05-26 15:37:10,112.03261892352378
2024-05-26 15:37:10,112.4809138994419
2024-05-26 15:37:10,112.8306494158402
2024-05-26 15:37:10,112.82049153016928
2024-05-26 15:37:10,112.78920680268796
2024-05-26 15:37:10,112.8630211211635
2024-05-26 15:37:10,112.72721065902523
2024-05-26 15:37:10,112.47399551356315
2024-05-26 15:37:10,112.44775159682602
2024-05-26 15:37:10,112.33022642964123
2024-05-26 15:37:10,111.97127152088629
2024-05-26 15:37:10,112.37317241699608
2024-05-26 15:37:10,114.11086754159598
2024-05-26 15:37:10,115.960288375812
2024-05-26 15:37:10,116.88668345859345
2024-05-26 15:37:10,117.11037834054733
2024-05-26 15:37:10,117.04338426369895
2024-05-26 15:37:10,116.56165946291661
2024-05-26 15:37:10,115.62470934118447
2024-05-26 15:37:10,114.76771657481447
2024-05-26 15:37:10,114.61997851882295
2024-05-26 15:37:10,115.6526661616266
2024-05-26 15:37:10,117.19511952731312
2024-05-26 15:37:10,118.14622382126618
2024-05-26 15:37:10,118.22403133842305
2024-05-26 15:37:10,117.01932370695624
2024-05-26 15:37:10,114.48386225344957
2024-05-26 15:37:10,111.91303389811958
2024-05-26 15:37:10,110.63069448957575
2024-05-26 15:37:10,110.38681529934446
2024-05-26 15:37:10,110.4071808928228
2024-05-26 15:37:10,110.95927884541143
2024-05-26 15:37:10,112.26471463003737
2024-05-26 15:37:10,113.54762190451962
2024-05-26 15:37:10,114.14089750866181
2024-05-26 15:37:10,114.41234495487592
2024-05-26 15:37:10,114.81908807203418
2024-05-26 15:37:10,114.8495726910919
2024-05-26 15:37:10,114.33854108066008
2024-05-26 15:37:10,113.92076206136694
2024-05-26 15:37:10,114.14058910101826
2024-05-26 15:37:10,115.58018501519182
2024-05-26 15:37:10,118.1718511901495
2024-05-26 15:37:10,121.76057214401463
2024-05-26 15:37:10,126.58468980940681
2024-05-26 15:37:10,132.3626836441057
2024-05-26 15:37:10,138.61369155141256
2024-05-26 15:37:10,144.7791840301154
2024-05-26 15:37:10,149.8675026278446
2024-05-26 15:37:10,151.35465946149014
2024-05-26 15:37:10,144.6427099722649
2024-05-26 15:37:10,129.93420844172005
2024-05-26 15:37:10,114.92600074062496
2024-05-26 15:37:10,105.37892136903416
2024-05-26 15:37:10,102.51548775496025
2024-05-26 15:37:10,105.59961799427391
2024-05-26 15:37:10,111.29492506559954
2024-05-26 15:37:10,115.51768569169936
2024-05-26 15:37:10,116.84299710974206
2024-05-26 15:37:10,116.57582047872079
2024-05-26 15:37:10,116.12001987598387
2024-05-26 15:37:10,116.43507695416052
2024-05-26 15:37:10,117.55660657996735
2024-05-26 15:37:10,117.74890187631689
2024-05-26 15:37:10,116.45884768513196
2024-05-26 15:37:10,115.24083855101829
2024-05-26 15:37:10,114.87225778255956
2024-05-26 15:37:10,115.06348006647184
2024-05-26 15:37:10,115.48746566337326
2024-05-26 15:37:10,116.18991862086587
2024-05-26 15:37:10,117.24634979829817
2024-05-26 15:37:10,118.36799812366115
2024-05-26 15:37:10,119.30806853364722
2024-05-26 15:37:10,119.5192273588097
2024-05-26 15:37:10,118.73334180642354
2024-05-26 15:37:10,118.09088209670006
2024-05-26 15:37:10,118.7250680864216
2024-05-26 15:37:10,119.97145704132406
2024-05-26 15:37:10,120.67326577580486
2024-05-26 15:37:10,121.40658877305528
2024-05-26 15:37:10,123.05400565130661
2024-05-26 15:37:10,124.73676567487094
2024-05-26 15:37:10,125.57312183423684
2024-05-26 15:37:10,125.6558089198687
2024-05-26 15:37:10,125.16632141143451
2024-05-26 15:37:10,124.71228521938579
2024-05-26 15:37:10,125.01319307340096
2024-05-26 15:37:10,125.88034812817881
2024-05-26 15:37:10,126.62351715373468
2024-05-26 15:37:10,127.32007205353274
2024-05-26 15:37:10,128.06914565337573
2024-05-26 15:37:10,128.51399015934075
2024-05-26 15:37:10,128.8973298781404
2024-05-26 15:37:10,129.06471333596386
2024-05-26 15:37:10,128.56736150782726
2024-05-26 15:37:10,128.0228007356366
2024-05-26 15:37:10,128.16759844498728
2024-05-26 15:37:10,128.70494758571093
2024-05-26 15:37:10,128.91332533713128
2024-05-26 15:37:10,128.94487987861407
2024-05-26 15:37:10,129.26154546316124
2024-05-26 15:37:10,129.1423820865232
2024-05-26 15:37:10,128.37591238205223
2024-05-26 15:37:10,127.85612373271462
2024-05-26 15:37:10,127.03545020859033
2024-05-26 15:37:10,125.6035771118041
2024-05-26 15:37:10,124.56608151740471
2024-05-26 15:37:10,123.81432163840898
2024-05-26 15:37:10,122.60888166858302
2024-05-26 15:37:10,121.19364724562286
2024-05-26 15:37:10,119.91832763342326
2024-05-26 15:37:10,118.2183088060131
2024-05-26 15:37:10,116.50980767497634
2024-05-26 15:37:10,115.70012518350029
2024-05-26 15:37:10,115.10792010604371
2024-05-26 15:37:10,114.1949624085867
2024-05-26 15:37:10,113.37607841740666
2024-05-26 15:37:10,113.18162119874466
2024-05-26 15:37:10,113.71419347028836
2024-05-26 15:37:10,114.75756663850714
2024-05-26 15:37:10,116.04382695541089
2024-05-26 15:37:10,116.83478261757874
2024-05-26 15:37:10,116.8804295396007
2024-05-26 15:37:10,116.68700620634039
2024-05-26 15:37:10,116.12255986773668
2024-05-26 15:37:10,115.28295278986361
2024-05-26 15:37:10,115.343992963018
2024-05-26 15:37:10,116.07350671992154
2024-05-26 15:37:10,116.16907111586724
2024-05-26 15:37:10,116.11409412424605
2024-05-26 15:37:10,116.74427000693458
2024-05-26 15:37:10,117.49900713003295
2024-05-26 15:37:10,117.79725103875452
2024-05-26 15:37:10,118.03931860171959
2024-05-26 15:37:10,118.26428367992062
2024-05-26 15:37:10,117.82193450232805
2024-05-26 15:37:10,117.24736649692997
2024-05-26 15:37:10,117.36504763478763
2024-05-26 15:37:10,117.83650490132963
2024-05-26 15:37:10,118.3651332639151
2024-05-26 15:37:10,118.83895296657204
2024-05-26 15:37:10,118.72092313539574
2024-05-26 15:37:10,118.0943859604551
2024-05-26 15:37:10,117.49088685610289
2024-05-26 15:37:10,116.8579724305864
2024-05-26 15:37:10,116.45812305904114
2024-05-26 15:37:10,116.7400625715046
2024-05-26 15:37:10,117.38533698682264
2024-05-26 15:37:10,118.0688611381157
2024-05-26 15:37:10,118.65405774387989
2024-05-26 15:37:10,118.86563633836765
2024-05-26 15:37:10,118.4462126238834
2024-05-26 15:37:10,117.40456065463617
2024-05-26 15:37:10,116.7050844445894
2024-05-26 15:37:10,116.80754473466182
2024-05-26 15:37:10,116.9863417899078
2024-05-26 15:37:10,117.23195547419601
2024-05-26 15:37:10,117.86618473072892
2024-05-26 15:37:10,118.60230893558199
2024-05-26 15:37:10,118.83356833339323
2024-05-26 15:37:10,118.44837908860578
2024-05-26 15:37:10,117.94962570014899
2024-05-26 15:37:10,117.7144285123158
2024-05-26 15:37:10,118.17795914300842
2024-05-26 15:37:10,118.49202122653189
2024-05-26 15:37:10,120.95884739513039
2024-05-26 15:37:10,128.3831534213121
2024-05-26 15:37:10,131.83796414272575
2024-05-26 15:37:10,124.024642427502
2024-05-26 15:37:10,114.20522939385832
2024-05-26 15:37:10,114.47260862708893
2024-05-26 15:37:10,123.63388209465151
2024-05-26 15:37:10,129.71844160434384
2024-05-26 15:37:10,125.27970547540203
2024-05-26 15:37:10,116.84715461160728
2024-05-26 15:37:10,115.50491538609552
2024-05-26 15:37:10,121.20702653094045
2024-05-26 15:37:10,124.624136342743
2024-05-26 15:37:10,120.86503904389366
2024-05-26 15:37:10,115.24679041943853
2024-05-26 15:37:10,115.1956470721388
2024-05-26 15:37:10,119.93327521597405
2024-05-26 15:37:10,122.89097407514325
2024-05-26 15:37:10,120.7121012936244
2024-05-26 15:37:10,116.73469999701231
2024-05-26 15:37:10,116.36385010246664
2024-05-26 15:37:10,119.34913376147283
2024-05-26 15:37:10,120.87621208030866
2024-05-26 15:37:10,119.10739605934944
2024-05-26 15:37:10,117.35473116900137
2024-05-26 15:37:10,119.39806542474157
2024-05-26 15:37:10,124.51813777584245
2024-05-26 15:37:10,128.8605635115735
2024-05-26 15:37:10,130.86031986375022
2024-05-26 15:37:10,133.57487946083344
2024-05-26 15:37:10,140.43076975464612
2024-05-26 15:37:10,150.02178811287726
2024-05-26 15:37:10,157.35530098876984
2024-05-26 15:37:10,157.8774694989818
2024-05-26 15:37:10,150.05278792585347
2024-05-26 15:37:10,136.38205566434237
2024-05-26 15:37:10,122.05921267575802
2024-05-26 15:37:10,111.78711152075445
2024-05-26 15:37:10,107.44664092828316
2024-05-26 15:37:10,108.69419769374936
2024-05-26 15:37:10,113.59659943209626
2024-05-26 15:37:10,118.60506481142238
2024-05-26 15:37:10,120.83925911645873
2024-05-26 15:37:10,120.33284284322676
2024-05-26 15:37:10,118.94593580754467
2024-05-26 15:37:10,118.14298723638663
2024-05-26 15:37:10,118.2134111869148
2024-05-26 15:37:10,118.37123485704772
2024-05-26 15:37:10,117.66241115528702
2024-05-26 15:37:10,117.12577285926929
2024-05-26 15:37:10,118.30942300536194
2024-05-26 15:37:10,119.93225243897868
2024-05-26 15:37:10,120.11428738555047
2024-05-26 15:37:10,119.25930998190432
2024-05-26 15:37:10,118.7541001149197
2024-05-26 15:37:10,119.27395532729253
2024-05-26 15:37:10,120.82422280292124
2024-05-26 15:37:10,122.70966843709448
2024-05-26 15:37:10,123.64806262495917
2024-05-26 15:37:10,123.15381598015136
2024-05-26 15:37:10,122.52038350352473
2024-05-26 15:37:10,122.61044142452945
2024-05-26 15:37:10,122.66140913155573
2024-05-26 15:37:10,122.74333565573309
2024-05-26 15:37:10,123.39086370893823
2024-05-26 15:37:10,124.20866962680162
2024-05-26 15:37:10,125.02393812763586
2024-05-26 15:37:10,125.89694548880394
2024-05-26 15:37:10,126.53377654024666
2024-05-26 15:37:10,127.00999207084215
2024-05-26 15:37:10,128.26120913236426
2024-05-26 15:37:10,129.8128502644799
2024-05-26 15:37:10,129.71099493791792
2024-05-26 15:37:10,128.67488373571788
2024-05-26 15:37:10,128.73216719308573
2024-05-26 15:37:11,130.02787650101388
2024-05-26 15:37:11,131.55817130666972
2024-05-26 15:37:11,132.4662175042239
2024-05-26 15:37:11,132.5424761687422
2024-05-26 15:37:11,131.84442015931876
2024-05-26 15:37:11,130.8430757881669
2024-05-26 15:37:11,130.40977957641132
2024-05-26 15:37:11,130.5870133011702
2024-05-26 15:37:11,130.63686902569154
2024-05-26 15:37:11,130.42002242725533
2024-05-26 15:37:11,130.31193383246534
2024-05-26 15:37:11,130.55475221113215
2024-05-26 15:37:11,130.8280811621335
2024-05-26 15:37:11,130.5029738437992
2024-05-26 15:37:11,129.4866152309931
2024-05-26 15:37:11,127.9134282625962
2024-05-26 15:37:11,125.74203540308133
2024-05-26 15:37:11,122.99322432624018
2024-05-26 15:37:11,120.3330207154587
2024-05-26 15:37:11,118.98468897205598
2024-05-26 15:37:11,118.84592238856018
2024-05-26 15:37:11,118.69703669271847
2024-05-26 15:37:11,118.25384894204983
2024-05-26 15:37:11,117.88858546090884
2024-05-26 15:37:11,117.29790300995542
2024-05-26 15:37:11,116.08242160814073
2024-05-26 15:37:11,114.67149589356495
2024-05-26 15:37:11,113.30939469675319
2024-05-26 15:37:11,112.3405882979016
2024-05-26 15:37:11,112.48832246413623
2024-05-26 15:37:11,113.48053616262762
2024-05-26 15:37:11,114.30891052567384
2024-05-26 15:37:11,114.4497848489861
2024-05-26 15:37:11,114.18741342005487
2024-05-26 15:37:11,113.70136951243316
2024-05-26 15:37:11,113.05408912063263
2024-05-26 15:37:11,113.16223579231085
2024-05-26 15:37:11,114.19899425650924
2024-05-26 15:37:11,114.99121437465799
2024-05-26 15:37:11,115.31354072516643
2024-05-26 15:37:11,115.51080674818296
2024-05-26 15:37:11,115.56567604357478
2024-05-26 15:37:11,115.71018640478108
2024-05-26 15:37:11,116.19582383697876
2024-05-26 15:37:11,116.4603941849642
2024-05-26 15:37:11,115.95187050607463
2024-05-26 15:37:11,115.50884651732086
2024-05-26 15:37:11,115.62018495099724
2024-05-26 15:37:11,115.91232478641595
2024-05-26 15:37:11,116.47945857850617
2024-05-26 15:37:11,116.92213996577725
2024-05-26 15:37:11,116.43786128182856
2024-05-26 15:37:11,115.40131542781286
2024-05-26 15:37:11,115.0557406917089
2024-05-26 15:37:11,115.46955069491652
2024-05-26 15:37:11,115.4863610201053
2024-05-26 15:37:11,114.69037632545145
2024-05-26 15:37:11,113.76792114136916
2024-05-26 15:37:11,113.1623787235494
2024-05-26 15:37:11,112.99455937470752
2024-05-26 15:37:11,113.70414681968029
2024-05-26 15:37:11,114.50444130918189
2024-05-26 15:37:11,114.58165958811469
2024-05-26 15:37:11,114.60185696335535
2024-05-26 15:37:11,114.75747384818827
2024-05-26 15:37:11,115.0684051466333
2024-05-26 15:37:11,116.06396427050184
2024-05-26 15:37:11,117.74970151741435
2024-05-26 15:37:11,118.77736342786795
2024-05-26 15:37:11,118.32662756269364
2024-05-26 15:37:11,117.56964990026522
2024-05-26 15:37:11,116.92250625544172
2024-05-26 15:37:11,116.13198096023132
2024-05-26 15:37:11,115.85986360768177
2024-05-26 15:37:11,116.28291431590299
2024-05-26 15:37:11,116.89147927120828
2024-05-26 15:37:11,117.29914487288069
2024-05-26 15:37:11,117.32812041698982
2024-05-26 15:37:11,117.0333003572174
2024-05-26 15:37:11,117.00221734204077
2024-05-26 15:37:11,117.75617580788628
2024-05-26 15:37:11,118.78655905570082
2024-05-26 15:37:11,119.5192262337063
2024-05-26 15:37:11,119.57646136651167
2024-05-26 15:37:11,118.30406638085807
2024-05-26 15:37:11,116.02562291044066
2024-05-26 15:37:11,114.20592528870853
2024-05-26 15:37:11,113.64687479981853
2024-05-26 15:37:11,113.71531602697019
2024-05-26 15:37:11,113.56024257393936
2024-05-26 15:37:11,113.34795937824893
2024-05-26 15:37:11,113.1915880212682
2024-05-26 15:37:11,112.64508320776527
2024-05-26 15:37:11,112.33452932762336
2024-05-26 15:37:11,112.93836862070808
2024-05-26 15:37:11,113.8277275910718
2024-05-26 15:37:11,114.31027851989867
2024-05-26 15:37:11,114.53555730915018
2024-05-26 15:37:11,115.25261374248615
2024-05-26 15:37:11,116.886859415452
2024-05-26 15:37:11,119.10498074840085
2024-05-26 15:37:11,121.25918102539971
2024-05-26 15:37:11,123.49612473747241
2024-05-26 15:37:11,126.89613041287527
2024-05-26 15:37:11,131.9623663916634
2024-05-26 15:37:11,138.06217206526588
2024-05-26 15:37:11,144.09816477022585
2024-05-26 15:37:11,148.1892544510605
2024-05-26 15:37:11,147.26866438514566
2024-05-26 15:37:11,139.01927434685246
2024-05-26 15:37:11,125.18198266790606
2024-05-26 15:37:11,111.49424105153017
2024-05-26 15:37:11,103.10106137155303
2024-05-26 15:37:11,101.7279246697861
2024-05-26 15:37:11,105.7641004144008
2024-05-26 15:37:11,111.6930545618473
2024-05-26 15:37:11,116.23985712779104
2024-05-26 15:37:11,117.7272486372839
2024-05-26 15:37:11,116.74723768092252
2024-05-26 15:37:11,114.93743991422838
2024-05-26 15:37:11,113.9842826917448
2024-05-26 15:37:11,114.30289588739738
2024-05-26 15:37:11,114.34481507848749
2024-05-26 15:37:11,113.62840226215337
2024-05-26 15:37:11,113.13391009612195
2024-05-26 15:37:11,113.34001394546758
2024-05-26 15:37:11,114.27576948923594
2024-05-26 15:37:11,115.4712358205002
2024-05-26 15:37:11,116.4243412158147
2024-05-26 15:37:11,116.89383258280354
2024-05-26 15:37:11,116.5743708057913
2024-05-26 15:37:11,115.84715970423642
2024-05-26 15:37:11,115.22689887481006
2024-05-26 15:37:11,115.0633493829622
2024-05-26 15:37:11,116.07302048750469
2024-05-26 15:37:11,118.30286284599738
2024-05-26 15:37:11,120.56900478776302
2024-05-26 15:37:11,121.38600549772818
2024-05-26 15:37:11,120.59618511595293
2024-05-26 15:37:11,119.54119179670006
2024-05-26 15:37:11,119.1326981784244
2024-05-26 15:37:11,119.07790094402255
2024-05-26 15:37:11,119.15131969445754
2024-05-26 15:37:11,120.04232852667329
2024-05-26 15:37:11,122.31178438977389
2024-05-26 15:37:11,124.96689861720324
2024-05-26 15:37:11,126.60782711243831
2024-05-26 15:37:11,127.37914581335532
2024-05-26 15:37:11,128.0585057402357
2024-05-26 15:37:11,128.60467866241225
2024-05-26 15:37:11,128.58605356336
2024-05-26 15:37:11,127.98545747691587
2024-05-26 15:37:11,127.00892318750681
2024-05-26 15:37:11,126.08443204472046
2024-05-26 15:37:11,125.79793106499844
2024-05-26 15:37:11,126.08901480706639
2024-05-26 15:37:11,126.73560439071132
2024-05-26 15:37:11,127.35535023547583
2024-05-26 15:37:11,127.20507782970598
2024-05-26 15:37:11,126.44709097433451
2024-05-26 15:37:11,125.6462228732347
2024-05-26 15:37:11,125.04294187350897
2024-05-26 15:37:11,124.45832509037753
2024-05-26 15:37:11,123.40704141951622
2024-05-26 15:37:11,122.20743441041591
2024-05-26 15:37:11,121.11349383939955
2024-05-26 15:37:11,119.68824212794894
2024-05-26 15:37:11,118.00169000621345
2024-05-26 15:37:11,116.78724972515187
2024-05-26 15:37:11,116.0883276140932
2024-05-26 15:37:11,115.04933392413398
2024-05-26 15:37:11,113.57202177451632
2024-05-26 15:37:11,112.03882380675498
2024-05-26 15:37:11,110.71741190835539
2024-05-26 15:37:11,110.46993526703422
2024-05-26 15:37:11,111.47685030275636
2024-05-26 15:37:11,112.78881745887023
2024-05-26 15:37:11,113.88745313252282
2024-05-26 15:37:11,114.58935871704732
2024-05-26 15:37:11,114.45112840641372
2024-05-26 15:37:11,113.38765931134708
2024-05-26 15:37:11,112.18762265167067
2024-05-26 15:37:11,111.76479841454484
2024-05-26 15:37:11,112.13847277522197
2024-05-26 15:37:11,112.94002473549979
2024-05-26 15:37:11,113.6811179911663
2024-05-26 15:37:11,113.71961409235543
2024-05-26 15:37:11,113.33217936324563
2024-05-26 15:37:11,113.09698337936035
2024-05-26 15:37:11,113.13598487089145
2024-05-26 15:37:11,113.56875897850155
2024-05-26 15:37:11,114.4628458446263
2024-05-26 15:37:11,115.59489000022327
2024-05-26 15:37:11,115.98194917158598
2024-05-26 15:37:11,115.3877989059988
2024-05-26 15:37:11,114.82951509148177
2024-05-26 15:37:11,114.15207894526229
2024-05-26 15:37:11,113.0738974902612
2024-05-26 15:37:11,112.3557198686686
2024-05-26 15:37:11,112.1536720025878
2024-05-26 15:37:11,112.07770180333384
2024-05-26 15:37:11,112.2144696698442
2024-05-26 15:37:11,113.04239134363944
2024-05-26 15:37:11,114.38429314867014
2024-05-26 15:37:11,115.83908215656491
2024-05-26 15:37:11,117.09917626706566
2024-05-26 15:37:11,116.88472492849391
2024-05-26 15:37:11,115.05442177047618
2024-05-26 15:37:11,113.4515940395932
2024-05-26 15:37:11,112.68283154277596
2024-05-26 15:37:11,112.41641382627105
2024-05-26 15:37:11,112.95687314180341
2024-05-26 15:37:11,114.01406197175777
2024-05-26 15:37:11,114.8012806135017
2024-05-26 15:37:11,115.18576529089862
2024-05-26 15:37:11,115.45525803663259
2024-05-26 15:37:11,115.44448424902764
2024-05-26 15:37:11,115.1306956921562
2024-05-26 15:37:11,115.2661990023312
2024-05-26 15:37:11,131.29031954363657
2024-05-26 15:37:11,154.37456532403078
2024-05-26 15:37:11,150.12612185947958
2024-05-26 15:37:11,135.56085180868092
2024-05-26 15:37:11,131.48388266529372
2024-05-26 15:37:11,124.59839816883652
2024-05-26 15:37:11,113.48425187723268
2024-05-26 15:37:11,109.51773284412458
2024-05-26 15:37:11,116.3725370248637
2024-05-26 15:37:11,124.30312153935574
2024-05-26 15:37:11,123.62562807824347
2024-05-26 15:37:11,116.24238627604304
2024-05-26 15:37:11,111.80909047017605
2024-05-26 15:37:11,114.66701692066732
2024-05-26 15:37:11,118.91041161238363
2024-05-26 15:37:11,117.4283323807044
2024-05-26 15:37:11,111.40272412799006
2024-05-26 15:37:11,108.63364380294666
2024-05-26 15:37:11,112.55389102958105
2024-05-26 15:37:11,117.09562080127745
2024-05-26 15:37:11,116.56216180036846
2024-05-26 15:37:11,113.17180920196158
2024-05-26 15:37:11,112.37054961545533
2024-05-26 15:37:11,115.57146209675405
2024-05-26 15:37:11,118.91167092307829
2024-05-26 15:37:11,118.53101715464429
2024-05-26 15:37:11,115.26653093140712
2024-05-26 15:37:11,114.2828542915678
2024-05-26 15:37:11,118.10737302182471
2024-05-26 15:37:11,122.63192420568419
2024-05-26 15:37:11,124.2374388435151
2024-05-26 15:37:11,125.01409233923934
2024-05-26 15:37:12,128.47715324194792
2024-05-26 15:37:12,134.7683584651275
2024-05-26 15:37:12,141.24911999946536
2024-05-26 15:37:12,144.84451493662954
2024-05-26 15:37:12,143.52950780337437
2024-05-26 15:37:12,137.09759125876502
2024-05-26 15:37:12,126.62258484172045
2024-05-26 15:37:12,114.68576709237357
2024-05-26 15:37:12,105.59278377163491
2024-05-26 15:37:12,118.4322665013211
2024-05-26 15:37:12,143.72521758588243
2024-05-26 15:37:12,143.20206855364452
2024-05-26 15:37:12,132.73345309623642
2024-05-26 15:37:12,131.88799604425338
2024-05-26 15:37:12,126.10515255899698
2024-05-26 15:37:12,114.70845818013858
2024-05-26 15:37:12,110.05668069387124
2024-05-26 15:37:12,116.66887538727896
2024-05-26 15:37:12,123.84077328563701
2024-05-26 15:37:12,121.51541492666843
2024-05-26 15:37:12,114.0842465892539
2024-05-26 15:37:12,112.5100495421283
2024-05-26 15:37:12,119.17987798887944
2024-05-26 15:37:12,125.39114702719418
2024-05-26 15:37:12,123.37278785057487
2024-05-26 15:37:12,116.22156734316691
2024-05-26 15:37:12,112.85314708923018
2024-05-26 15:37:12,116.19239330853168
2024-05-26 15:37:12,120.39858249151457
2024-05-26 15:37:12,120.22105094549954
2024-05-26 15:37:12,117.87275833414503
2024-05-26 15:37:12,118.5813239189411
2024-05-26 15:37:12,122.80826137849418
2024-05-26 15:37:12,125.74076571362022
2024-05-26 15:37:12,124.21834380582631
2024-05-26 15:37:12,120.55040904353162
2024-05-26 15:37:12,119.50936262567197
2024-05-26 15:37:12,122.9356988165068
2024-05-26 15:37:12,126.95503586242863
2024-05-26 15:37:12,127.12319793172274
2024-05-26 15:37:12,124.88025923178354
2024-05-26 15:37:12,124.39743651740791
2024-05-26 15:37:12,126.46910092283444
2024-05-26 15:37:12,128.39036776521618
2024-05-26 15:37:12,128.00708055018302
2024-05-26 15:37:12,126.33799328235578
2024-05-26 15:37:12,125.70902966829682
2024-05-26 15:37:12,127.47850029037798
2024-05-26 15:37:12,130.20448804257188
2024-05-26 15:37:12,130.9669347904824
2024-05-26 15:37:12,130.23013275344664
2024-05-26 15:37:12,130.25560968096312
2024-05-26 15:37:12,131.08827041119773
2024-05-26 15:37:12,131.67032955155867
2024-05-26 15:37:12,131.3528383832625
2024-05-26 15:37:12,130.1933024305137
2024-05-26 15:37:12,129.00519724354183
2024-05-26 15:37:12,128.69716772985558
2024-05-26 15:37:12,129.3876111619107
2024-05-26 15:37:12,129.7379936998283
2024-05-26 15:37:12,129.1923504694463
2024-05-26 15:37:12,128.66401327444893
2024-05-26 15:37:12,127.53556665929412
2024-05-26 15:37:12,125.22417095243793
2024-05-26 15:37:12,122.71145445291206
2024-05-26 15:37:12,120.74092513345293
2024-05-26 15:37:12,119.56921174165856
2024-05-26 15:37:12,119.00537485725104
2024-05-26 15:37:12,118.54966070825267
2024-05-26 15:37:12,117.61745839796329
2024-05-26 15:37:12,116.0484517880114
2024-05-26 15:37:12,114.61401041146593
2024-05-26 15:37:12,113.57654805036996
2024-05-26 15:37:12,112.53172152484606
2024-05-26 15:37:12,111.86608597862242
2024-05-26 15:37:12,111.87189605243705
2024-05-26 15:37:12,112.2536611555388
2024-05-26 15:37:12,113.04544437324212
2024-05-26 15:37:12,113.84490722822875
2024-05-26 15:37:12,113.86273289864087
2024-05-26 15:37:12,113.68812203495388
2024-05-26 15:37:12,113.9289637673538
2024-05-26 15:37:12,113.64662766226888
2024-05-26 15:37:12,112.55569981547278
2024-05-26 15:37:12,111.7623174644151
2024-05-26 15:37:12,111.88194794096417
2024-05-26 15:37:12,112.54245640809874
2024-05-26 15:37:12,113.3272151933993
2024-05-26 15:37:12,113.77059597319449
2024-05-26 15:37:12,113.33977011941938
2024-05-26 15:37:12,112.93679566952312
2024-05-26 15:37:12,113.73121319240394
2024-05-26 15:37:12,114.53303028534242
2024-05-26 15:37:12,114.30170527944958
2024-05-26 15:37:12,113.66148819611385
2024-05-26 15:37:12,113.05922467453253
2024-05-26 15:37:12,112.67049474613952
2024-05-26 15:37:12,112.83517155203921
2024-05-26 15:37:12,113.69394721015252
2024-05-26 15:37:12,114.50436204431466
2024-05-26 15:37:12,115.25360168225767
2024-05-26 15:37:12,116.3171697234874
2024-05-26 15:37:12,116.51708399066176
2024-05-26 15:37:12,115.30521083639084
2024-05-26 15:37:12,113.59670582216772
2024-05-26 15:37:12,112.42109260688875
2024-05-26 15:37:12,112.2950126733518
2024-05-26 15:37:12,113.27150221842219
2024-05-26 15:37:12,115.01266138198629
2024-05-26 15:37:12,116.2164115509233
2024-05-26 15:37:12,115.83258850910633
2024-05-26 15:37:12,114.82873885344243
2024-05-26 15:37:12,114.20363132517807
2024-05-26 15:37:12,113.67672246211752
2024-05-26 15:37:12,113.67298580662055
2024-05-26 15:37:12,114.48755385826617
2024-05-26 15:37:12,115.08089971231807
2024-05-26 15:37:12,115.11323421494237
2024-05-26 15:37:12,115.36309269862836
2024-05-26 15:37:12,115.78740321365629
2024-05-26 15:37:12,115.64789977684526
2024-05-26 15:37:12,115.27340079134459
2024-05-26 15:37:12,115.2456647298364
2024-05-26 15:37:12,115.2454335928789
2024-05-26 15:37:12,115.50272993752503
2024-05-26 15:37:12,116.23695908517404
2024-05-26 15:37:12,116.57427779599243
2024-05-26 15:37:12,116.28292959678163
2024-05-26 15:37:12,115.94028305136833
2024-05-26 15:37:12,115.30456282280987
2024-05-26 15:37:12,113.93006347311704
2024-05-26 15:37:12,112.4757327431339
2024-05-26 15:37:12,111.5864465950092
2024-05-26 15:37:12,111.02311238913873
2024-05-26 15:37:12,110.86354726872635
2024-05-26 15:37:12,111.56169263271687
2024-05-26 15:37:12,112.75043426321196
2024-05-26 15:37:12,113.50647353518357
2024-05-26 15:37:12,113.71097334664951
2024-05-26 15:37:12,114.07679610275665
2024-05-26 15:37:12,114.48352780847387
2024-05-26 15:37:12,114.58105659325767
2024-05-26 15:37:12,114.75255047784536
2024-05-26 15:37:12,115.14390201211461
2024-05-26 15:37:12,116.16704569773941
2024-05-26 15:37:12,118.20729220404935
2024-05-26 15:37:12,121.28951978350891
2024-05-26 15:37:12,125.69140387192374
2024-05-26 15:37:12,131.30102089511402
2024-05-26 15:37:12,137.4802554880956
2024-05-26 15:37:12,142.87995388095948
2024-05-26 15:37:12,145.82192240855525
2024-05-26 15:37:12,143.2656964548699
2024-05-26 15:37:12,132.62913675428098
2024-05-26 15:37:12,117.89288073485568
2024-05-26 15:37:12,106.53718438168315
2024-05-26 15:37:12,102.43138680169798
2024-05-26 15:37:12,104.69630982008367
2024-05-26 15:37:12,109.64087529290443
2024-05-26 15:37:12,113.52560877125093
2024-05-26 15:37:12,114.51114737173418
2024-05-26 15:37:12,113.36376070532476
2024-05-26 15:37:12,112.52111723175517
2024-05-26 15:37:12,113.26084496555472
2024-05-26 15:37:12,114.88777304938034
2024-05-26 15:37:12,116.32462474828337
2024-05-26 15:37:12,116.50467826068243
2024-05-26 15:37:12,115.4047790423593
2024-05-26 15:37:12,114.52238601837253
2024-05-26 15:37:12,114.91025864042176
2024-05-26 15:37:12,115.6450060635456
2024-05-26 15:37:12,115.5903210373799
2024-05-26 15:37:12,115.71026159655759
2024-05-26 15:37:12,116.47634547241225
2024-05-26 15:37:12,117.17106933885344
2024-05-26 15:37:12,117.89626871425457
2024-05-26 15:37:12,118.1568687239609
2024-05-26 15:37:12,117.47325201664454
2024-05-26 15:37:12,116.77919032493759
2024-05-26 15:37:12,116.8341973483905
2024-05-26 15:37:12,117.36409793173895
2024-05-26 15:37:12,118.01780207591865
2024-05-26 15:37:12,118.89929129129368
2024-05-26 15:37:12,120.05806121577385
2024-05-26 15:37:12,121.39579316768497
2024-05-26 15:37:12,122.84654273889007
2024-05-26 15:37:12,123.92270119264151
2024-05-26 15:37:12,123.95667312096163
2024-05-26 15:37:12,123.53262283558477
2024-05-26 15:37:12,123.65903015829853
2024-05-26 15:37:12,124.16430383020692
2024-05-26 15:37:12,124.68426877314178
2024-05-26 15:37:12,125.39988356003381
2024-05-26 15:37:12,126.29842130229353
2024-05-26 15:37:12,126.87290536214019
2024-05-26 15:37:12,127.11262160266202
2024-05-26 15:37:12,127.2912710840638
2024-05-26 15:37:12,127.01484842906736
2024-05-26 15:37:12,126.17543896017958
2024-05-26 15:37:12,125.43494170818659
2024-05-26 15:37:12,125.29038240266254
2024-05-26 15:37:12,125.5929031250323
2024-05-26 15:37:12,126.25659001593809
2024-05-26 15:37:12,127.22800198255001
2024-05-26 15:37:12,127.4086539389687
2024-05-26 15:37:12,126.37332795838859
2024-05-26 15:37:12,124.86111050331048
2024-05-26 15:37:12,122.72915179138116
2024-05-26 15:37:12,120.55139926424803
2024-05-26 15:37:12,119.37229859699978
2024-05-26 15:37:12,118.53496469041309
2024-05-26 15:37:12,117.14975053900547
2024-05-26 15:37:12,115.75096199479725
2024-05-26 15:37:12,115.15908983241663
2024-05-26 15:37:12,114.84244833685241
2024-05-26 15:37:12,114.33139962922236
2024-05-26 15:37:12,113.924355524214
2024-05-26 15:37:12,113.36008743302529
2024-05-26 15:37:12,112.21115882569106
2024-05-26 15:37:12,110.55261109304206
2024-05-26 15:37:12,109.14226510995377
2024-05-26 15:37:12,108.63494961799836
2024-05-26 15:37:12,109.07826012254765
2024-05-26 15:37:12,110.28508240670061
2024-05-26 15:37:12,111.48950840260095
2024-05-26 15:37:12,112.41904014671775
2024-05-26 15:37:12,113.12783355006084
2024-05-26 15:37:12,112.80479774038032
2024-05-26 15:37:12,111.5512006726349
2024-05-26 15:37:12,110.7772492931264
2024-05-26 15:37:12,110.91295788626906
2024-05-26 15:37:12,111.31183756054307
2024-05-26 15:37:12,111.4347106488592
2024-05-26 15:37:12,111.18587620474038
2024-05-26 15:37:12,110.59501474717243
2024-05-26 15:37:12,109.60242949636913
2024-05-26 15:37:12,109.0881875293772
2024-05-26 15:37:12,109.6216357304545
2024-05-26 15:37:12,110.48344636102783
2024-05-26 15:37:12,111.39799975758714
2024-05-26 15:37:12,112.21931465690065
2024-05-26 15:37:12,112.2627465109057
2024-05-26 15:37:12,111.21453118776293
2024-05-26 15:37:12,109.97220952934454
2024-05-26 15:37:12,109.40821439102416
2024-05-26 15:37:12,109.20599436677082
2024-05-26 15:37:12,109.372340365949
2024-05-26 15:37:12,109.94620319158085
2024-05-26 15:37:12,110.13423400588859
2024-05-26 15:37:12,110.01503250093326
2024-05-26 15:37:12,109.89796265856015
2024-05-26 15:37:13,109.47618070063938
2024-05-26 15:37:13,109.11947857683788
2024-05-26 15:37:13,109.44309241177251
2024-05-26 15:37:13,109.88488926659817
2024-05-26 15:37:13,109.50669830477182
2024-05-26 15:37:13,109.09569888212272
2024-05-26 15:37:13,108.9985979132864
2024-05-26 15:37:13,108.21102531362042
2024-05-26 15:37:13,107.44815719556733
2024-05-26 15:37:13,107.7774754839902
2024-05-26 15:37:13,108.7551212790616
2024-05-26 15:37:13,109.81668790088003
2024-05-26 15:37:13,111.00555351176828
2024-05-26 15:37:13,112.13889245292054
2024-05-26 15:37:13,112.44137416285238
2024-05-26 15:37:13,112.00388069041635
2024-05-26 15:37:13,111.40149814783413
2024-05-26 15:37:13,110.61646523748185
2024-05-26 15:37:13,110.42263238591748
2024-05-26 15:37:13,111.68485119624333
2024-05-26 15:37:13,113.5514909273781
2024-05-26 15:37:13,114.63102913459267
2024-05-26 15:37:13,114.67021002945275
2024-05-26 15:37:13,114.02404386657632
2024-05-26 15:37:13,112.54375841362689
2024-05-26 15:37:13,110.46817566906844
2024-05-26 15:37:13,108.41744688693207
2024-05-26 15:37:13,106.75022291326786
2024-05-26 15:37:13,106.19968300707795
2024-05-26 15:37:13,107.06448950143653
2024-05-26 15:37:13,108.66741225855424
2024-05-26 15:37:13,110.13160992394174
2024-05-26 15:37:13,110.68926843296884
2024-05-26 15:37:13,110.0630692916822
2024-05-26 15:37:13,108.6975616102607
2024-05-26 15:37:13,107.23146037509842
2024-05-26 15:37:13,106.3130573034138
2024-05-26 15:37:13,106.3960262138732
2024-05-26 15:37:13,107.62673461049432
2024-05-26 15:37:13,109.86774828332005
2024-05-26 15:37:13,112.29006362450433
2024-05-26 15:37:13,114.43593048174112
2024-05-26 15:37:13,117.20912869313722
2024-05-26 15:37:13,121.61611878309441
2024-05-26 15:37:13,127.10891492300144
2024-05-26 15:37:13,132.73004079064572
2024-05-26 15:37:13,138.54802802585186
2024-05-26 15:37:13,141.85166564517553
2024-05-26 15:37:13,137.78062279036703
2024-05-26 15:37:13,126.15405203921357
2024-05-26 15:37:13,111.81376759323106
2024-05-26 15:37:13,100.56868739018752
2024-05-26 15:37:13,95.49517100998678
2024-05-26 15:37:13,96.50702655500746
2024-05-26 15:37:13,101.33422713422378
2024-05-26 15:37:13,106.11276032981358
2024-05-26 15:37:13,108.54592234869645
2024-05-26 15:37:13,109.05000596058738
2024-05-26 15:37:13,109.05447283909345
2024-05-26 15:37:13,109.38832186592208
2024-05-26 15:37:13,109.63022685638316
2024-05-26 15:37:13,108.97130648052905
2024-05-26 15:37:13,107.60750548180584
2024-05-26 15:37:13,106.62481342358278
2024-05-26 15:37:13,106.68844964487793
2024-05-26 15:37:13,107.56869062106477
2024-05-26 15:37:13,108.47489475777901
2024-05-26 15:37:13,108.95151722590538
2024-05-26 15:37:13,109.1024283871293
2024-05-26 15:37:13,109.54307140682052
2024-05-26 15:37:13,110.75327403803917
2024-05-26 15:37:13,111.76420243295823
2024-05-26 15:37:13,111.6118869305316
2024-05-26 15:37:13,110.85682328332963
2024-05-26 15:37:13,110.36443794566136
2024-05-26 15:37:13,110.27828785207377
2024-05-26 15:37:13,110.30524179179515
2024-05-26 15:37:13,110.46894067410791
2024-05-26 15:37:13,110.88563446909416
2024-05-26 15:37:13,111.82980121688666
2024-05-26 15:37:13,113.5913277370817
2024-05-26 15:37:13,114.96535575019143
2024-05-26 15:37:13,115.18925626124359
2024-05-26 15:37:13,115.4171277475579
2024-05-26 15:37:13,116.22782590984647
2024-05-26 15:37:13,117.11207448801191
2024-05-26 15:37:13,117.62854827506649
2024-05-26 15:37:13,117.71867617429028
2024-05-26 15:37:13,117.48327770503008
2024-05-26 15:37:13,117.30665010618137
2024-05-26 15:37:13,117.3180406846102
2024-05-26 15:37:13,117.03634081956932
2024-05-26 15:37:13,116.9306819742978
2024-05-26 15:37:13,117.58169020049887
2024-05-26 15:37:13,118.3133257529544
2024-05-26 15:37:13,118.68455260857398
2024-05-26 15:37:13,118.86529962383165
2024-05-26 15:37:13,118.98648555147642
2024-05-26 15:37:13,118.99002546594923
2024-05-26 15:37:13,119.00990103324679
2024-05-26 15:37:13,118.91119504173055
2024-05-26 15:37:13,117.89584022674887
2024-05-26 15:37:13,116.3619517026474
2024-05-26 15:37:13,115.21023526474845
2024-05-26 15:37:13,114.10106406890111
2024-05-26 15:37:13,112.67450905054523
2024-05-26 15:37:13,111.0971568812767
2024-05-26 15:37:13,109.30052379339826
2024-05-26 15:37:13,107.12347797041654
2024-05-26 15:37:13,104.88977157992359
2024-05-26 15:37:13,103.51479986075537
2024-05-26 15:37:13,102.94260036484667
2024-05-26 15:37:13,102.16905258470301
2024-05-26 15:37:13,101.5348246725977
2024-05-26 15:37:13,101.45038554692012
2024-05-26 15:37:13,101.36926779657138
2024-05-26 15:37:13,101.29475413578618
2024-05-26 15:37:13,101.60230939658815
2024-05-26 15:37:13,101.93218852395752
2024-05-26 15:37:13,101.5267446401956
2024-05-26 15:37:13,101.17914409500865
2024-05-26 15:37:13,101.95056397699926
2024-05-26 15:37:13,102.68613453788355
2024-05-26 15:37:13,102.60105281179511
2024-05-26 15:37:13,102.31610714101964
2024-05-26 15:37:13,101.93656452424169
2024-05-26 15:37:13,101.62613945383411
2024-05-26 15:37:13,101.7866894296444
2024-05-26 15:37:13,102.02930910433426
2024-05-26 15:37:13,101.69320616792913
2024-05-26 15:37:13,100.93684996252603
2024-05-26 15:37:13,100.26200910484599
2024-05-26 15:37:13,99.88135557950633
2024-05-26 15:37:13,100.41103845676845
2024-05-26 15:37:13,101.86681422633671
2024-05-26 15:37:13,103.14435972251465
2024-05-26 15:37:13,103.88500939576616
2024-05-26 15:37:13,104.18998593488132
2024-05-26 15:37:13,103.85714527306277
2024-05-26 15:37:13,103.17788182212529
2024-05-26 15:37:13,102.80954069054775
2024-05-26 15:37:13,102.38226087787564
2024-05-26 15:37:13,101.44302705821723
2024-05-26 15:37:13,100.70880644886282
2024-05-26 15:37:13,100.43789256244727
2024-05-26 15:37:13,100.30327133270275
2024-05-26 15:37:13,100.13183001885625
2024-05-26 15:37:13,100.29284661133428
2024-05-26 15:37:13,101.20432185784603
2024-05-26 15:37:13,102.26668440841368
2024-05-26 15:37:13,102.92198554462635
2024-05-26 15:37:13,102.78075105439915
2024-05-26 15:37:13,101.84835111938531
2024-05-26 15:37:13,101.46564062961106
2024-05-26 15:37:13,102.34617439377494
2024-05-26 15:37:13,103.50161317854567
2024-05-26 15:37:13,104.61688410225791
2024-05-26 15:37:13,106.1060963767412
2024-05-26 15:37:13,107.03970405207204
2024-05-26 15:37:13,106.72248079551642
2024-05-26 15:37:13,105.72168527943116
2024-05-26 15:37:13,104.6842150191744
2024-05-26 15:37:13,103.80826717157086
2024-05-26 15:37:13,103.26850728399657
2024-05-26 15:37:13,103.8203473934616
2024-05-26 15:37:13,105.24117420244048
2024-05-26 15:37:13,105.90981977384013
2024-05-26 15:37:13,105.68536265015925
2024-05-26 15:37:13,105.8784631199832
2024-05-26 15:37:13,105.95903988191169
2024-05-26 15:37:13,104.9736546437227
2024-05-26 15:37:13,103.57077719247285
2024-05-26 15:37:13,103.78368785117928
2024-05-26 15:37:13,108.60353834455223
2024-05-26 15:37:13,114.52954231405937
2024-05-26 15:37:13,111.57659270177689
2024-05-26 15:37:13,99.82740063689467
2024-05-26 15:37:13,92.206074974901
2024-05-26 15:37:13,96.54246341507056
2024-05-26 15:37:13,105.19746310596845
2024-05-26 15:37:13,106.35630964805976
2024-05-26 15:37:13,100.3649330180092
2024-05-26 15:37:13,97.5833016632692
2024-05-26 15:37:13,102.72923548873082
2024-05-26 15:37:13,109.18830142315555
2024-05-26 15:37:13,109.41584488834641
2024-05-26 15:37:13,105.11143578527836
2024-05-26 15:37:13,104.29288020946854
2024-05-26 15:37:13,111.04622346923948
2024-05-26 15:37:13,121.61317791314201
2024-05-26 15:37:13,129.860888971806
2024-05-26 15:37:13,133.87453072673523
2024-05-26 15:37:13,135.8257066739247
2024-05-26 15:37:13,135.4710974990599
2024-05-26 15:37:13,128.29059914313794
2024-05-26 15:37:13,113.2916627455939
2024-05-26 15:37:13,97.41908237081583
2024-05-26 15:37:13,89.36969177291465
2024-05-26 15:37:13,91.59630835913985
2024-05-26 15:37:13,98.87742968997955
2024-05-26 15:37:13,103.78427199826582
2024-05-26 15:37:13,103.45095478303887
2024-05-26 15:37:13,101.4118996195698
2024-05-26 15:37:13,101.58795284909844
2024-05-26 15:37:13,103.19811389415985
2024-05-26 15:37:13,103.88449714607745
2024-05-26 15:37:13,103.38909187369232
2024-05-26 15:37:13,102.97477245187058
2024-05-26 15:37:13,103.7568779360199
2024-05-26 15:37:13,105.38670358859527
2024-05-26 15:37:13,106.22774993129445
2024-05-26 15:37:13,105.59728326272625
2024-05-26 15:37:13,105.04613966678124
2024-05-26 15:37:13,105.90014781750249
2024-05-26 15:37:13,106.96198614604921
2024-05-26 15:37:13,106.93380850348089
2024-05-26 15:37:13,106.25519140147492
2024-05-26 15:37:13,105.90684365032244
2024-05-26 15:37:13,106.26626526555897
2024-05-26 15:37:13,107.15167985540388
2024-05-26 15:37:13,108.21285367293342
2024-05-26 15:37:13,109.00535821877565
2024-05-26 15:37:13,109.85455391364839
2024-05-26 15:37:13,111.08886263642525
2024-05-26 15:37:13,111.90451025509402
2024-05-26 15:37:13,111.94951537806985
2024-05-26 15:37:13,112.05325700385016
2024-05-26 15:37:13,112.77820188314045
2024-05-26 15:37:13,113.65439663686908
2024-05-26 15:37:13,114.32287306899725
2024-05-26 15:37:13,115.08504989067583
2024-05-26 15:37:13,115.78092447675628
2024-05-26 15:37:13,115.96629621633078
2024-05-26 15:37:13,116.43775239779514
2024-05-26 15:37:13,117.52634676191173
2024-05-26 15:37:13,117.9136022352018
2024-05-26 15:37:13,117.652629076091
2024-05-26 15:37:13,117.75107689220148
2024-05-26 15:37:13,118.1681553044935
2024-05-26 15:37:13,118.62951013337519
2024-05-26 15:37:13,119.10560170801597
2024-05-26 15:37:13,119.44474762497428
2024-05-26 15:37:13,119.38806852653444
2024-05-26 15:37:13,119.2348261088721
2024-05-26 15:37:13,119.3270834880328
2024-05-26 15:37:13,119.2191539971092
2024-05-26 15:37:13,118.7606065047745
2024-05-26 15:37:13,118.33882277263939
2024-05-26 15:37:13,117.90995828892669
2024-05-26 15:37:13,117.32736502909687
2024-05-26 15:37:13,116.6046877849067
2024-05-26 15:37:14,115.62461503835198
2024-05-26 15:37:14,113.93859902289408
2024-05-26 15:37:14,111.40588474116608
2024-05-26 15:37:14,108.78158807924348
2024-05-26 15:37:14,106.97216689926901
2024-05-26 15:37:14,106.5004530166973
2024-05-26 15:37:14,106.9481346818939
2024-05-26 15:37:14,107.36422735552979
2024-05-26 15:37:14,107.35870849002292
2024-05-26 15:37:14,107.08172044287339
2024-05-26 15:37:14,106.84986681893807
2024-05-26 15:37:14,106.7366985048132
2024-05-26 15:37:14,106.49000585279703
2024-05-26 15:37:14,105.5619235297019
2024-05-26 15:37:14,104.22053849554658
2024-05-26 15:37:14,103.91840303802185
2024-05-26 15:37:14,105.03040928542495
2024-05-26 15:37:14,106.40986351052084
2024-05-26 15:37:14,107.1698152051405
2024-05-26 15:37:14,107.36992999398589
2024-05-26 15:37:14,107.24133763484696
2024-05-26 15:37:14,106.94069492729881
2024-05-26 15:37:14,107.07605122482752
2024-05-26 15:37:14,107.61422250193436
2024-05-26 15:37:14,108.00366770516102
2024-05-26 15:37:14,108.7452972229037
2024-05-26 15:37:14,109.99948985993099
2024-05-26 15:37:14,110.81752599783255
2024-05-26 15:37:14,110.86118476136554
2024-05-26 15:37:14,110.41026289442416
2024-05-26 15:37:14,109.2228324923071
2024-05-26 15:37:14,107.38817811528465
2024-05-26 15:37:14,106.12936470763094
2024-05-26 15:37:14,106.48569711768083
2024-05-26 15:37:14,107.46172050818606
2024-05-26 15:37:14,107.9207285423082
2024-05-26 15:37:14,108.55918487672402
2024-05-26 15:37:14,109.36420250011442
2024-05-26 15:37:14,109.75840716961113
2024-05-26 15:37:14,110.34301109230294
2024-05-26 15:37:14,111.20516308782831
2024-05-26 15:37:14,111.21715790082904
2024-05-26 15:37:14,110.49402332697224
2024-05-26 15:37:14,110.18355214514722
2024-05-26 15:37:14,110.13780122877357
2024-05-26 15:37:14,110.24499784135698
2024-05-26 15:37:14,111.10889218236655
2024-05-26 15:37:14,112.08758915507894
2024-05-26 15:37:14,112.24332533791862
2024-05-26 15:37:14,111.84156844243901
2024-05-26 15:37:14,111.64326830036083
2024-05-26 15:37:14,112.07063533149442
2024-05-26 15:37:14,113.11809895743482
2024-05-26 15:37:14,114.72184149515067
2024-05-26 15:37:14,116.20825584858225
2024-05-26 15:37:14,116.56865491395727
2024-05-26 15:37:14,116.25264915154972
2024-05-26 15:37:14,116.04054121736691
2024-05-26 15:37:14,115.38693430181489
2024-05-26 15:37:14,114.21301563489938
2024-05-26 15:37:14,113.5558134759569
2024-05-26 15:37:14,114.06273758424985
2024-05-26 15:37:14,115.43660870376925
2024-05-26 15:37:14,117.15329492112821
2024-05-26 15:37:14,118.55890564382442
2024-05-26 15:37:14,118.51265039070819
2024-05-26 15:37:14,116.89903590016293
2024-05-26 15:37:14,114.74044590369691
2024-05-26 15:37:14,112.80354695438284
2024-05-26 15:37:14,111.86400065639272
2024-05-26 15:37:14,111.87872262308665
2024-05-26 15:37:14,111.90699137187339
2024-05-26 15:37:14,111.45476793123727
2024-05-26 15:37:14,111.0866606002645
2024-05-26 15:37:14,111.55435678436439
2024-05-26 15:37:14,112.34284217728126
2024-05-26 15:37:14,113.45615236976178
2024-05-26 15:37:14,115.20403669901548
2024-05-26 15:37:14,116.20848156821347
2024-05-26 15:37:14,116.0092456916862
2024-05-26 15:37:14,116.11018229685487
2024-05-26 15:37:14,117.22269751335052
2024-05-26 15:37:14,118.88002183153876
2024-05-26 15:37:14,121.4488644937568
2024-05-26 15:37:14,125.81773281576095
2024-05-26 15:37:14,131.72188792306991
2024-05-26 15:37:14,138.9112536553174
2024-05-26 15:37:14,146.8843943619726
2024-05-26 15:37:14,152.56478296830755
2024-05-26 15:37:14,152.22079484486164
2024-05-26 15:37:14,144.24920103756313
2024-05-26 15:37:14,130.35979704795386
2024-05-26 15:37:14,116.04913780247873
2024-05-26 15:37:14,107.42028362169378
2024-05-26 15:37:14,106.0797399760331
2024-05-26 15:37:14,109.02228822936127
2024-05-26 15:37:14,113.35123396541105
2024-05-26 15:37:14,117.02523490356408
2024-05-26 15:37:14,117.76825599118625
2024-05-26 15:37:14,116.12241228644716
2024-05-26 15:37:14,115.14364895087664
2024-05-26 15:37:14,116.0278295138749
2024-05-26 15:37:14,117.60834673016979
2024-05-26 15:37:14,118.73192861286306
2024-05-26 15:37:14,119.40244437575588
2024-05-26 15:37:14,119.83829900113574
2024-05-26 15:37:14,119.46152511844267
2024-05-26 15:37:14,118.59946798411215
2024-05-26 15:37:14,118.35259422794726
2024-05-26 15:37:14,118.53285428277475
2024-05-26 15:37:14,119.21394674427812
2024-05-26 15:37:14,120.68485837306773
2024-05-26 15:37:14,121.89998111282311
2024-05-26 15:37:14,122.00002307103472
2024-05-26 15:37:14,121.55685776671368
2024-05-26 15:37:14,121.58004882024886
2024-05-26 15:37:14,122.38949005744618
2024-05-26 15:37:14,123.61570449358044
2024-05-26 15:37:14,124.59056175077208
2024-05-26 15:37:14,125.47069678196348
2024-05-26 15:37:14,126.70349816198677
2024-05-26 15:37:14,127.48584834148288
2024-05-26 15:37:14,127.39301162443229
2024-05-26 15:37:14,127.35521849197629
2024-05-26 15:37:14,128.2046291368017
2024-05-26 15:37:14,129.54187318196162
2024-05-26 15:37:14,130.45556241227084
2024-05-26 15:37:14,131.12420621503335
2024-05-26 15:37:14,131.70205292794725
2024-05-26 15:37:14,131.8397899728658
2024-05-26 15:37:14,132.34861634562662
2024-05-26 15:37:14,133.5789853866758
2024-05-26 15:37:14,134.40195717880374
2024-05-26 15:37:14,134.4973308451926
2024-05-26 15:37:14,134.4187374464707
2024-05-26 15:37:14,134.51371951224908
2024-05-26 15:37:14,134.74674004721487
2024-05-26 15:37:14,134.89030939094863
2024-05-26 15:37:14,134.6507843362235
2024-05-26 15:37:14,133.86266632274643
2024-05-26 15:37:14,133.54170434506867
2024-05-26 15:37:14,134.2725890030427
2024-05-26 15:37:14,134.84782449609207
2024-05-26 15:37:14,134.43795488663986
2024-05-26 15:37:14,133.1493950989973
2024-05-26 15:37:14,131.4703000146287
2024-05-26 15:37:14,129.83409554685656
2024-05-26 15:37:14,128.51373239669863
2024-05-26 15:37:14,127.2637515936587
2024-05-26 15:37:14,125.28584703759687
2024-05-26 15:37:14,122.8783649984546
2024-05-26 15:37:14,120.98920712327077
2024-05-26 15:37:14,119.85508513049604
2024-05-26 15:37:14,119.2098791274286
2024-05-26 15:37:14,119.09062122708876
2024-05-26 15:37:14,119.38327164959216
2024-05-26 15:37:14,119.45500662392222
2024-05-26 15:37:14,119.2043602344075
2024-05-26 15:37:14,119.22653796073737
2024-05-26 15:37:14,119.44424615138684
2024-05-26 15:37:14,119.67700224416691
2024-05-26 15:37:14,120.3443948494016
2024-05-26 15:37:14,120.75182036870777
2024-05-26 15:37:14,120.23960593628246
2024-05-26 15:37:14,119.32478274259189
2024-05-26 15:37:14,118.61399225251868
2024-05-26 15:37:14,118.32142716984866
2024-05-26 15:37:14,118.73334512532081
2024-05-26 15:37:14,119.94564274626134
2024-05-26 15:37:14,120.56085870145542
2024-05-26 15:37:14,120.18743137073149
2024-05-26 15:37:14,120.32744033879138
2024-05-26 15:37:14,120.66002040024426
2024-05-26 15:37:14,120.4991835233298
2024-05-26 15:37:14,120.6334277029028
2024-05-26 15:37:14,120.83054423658984
2024-05-26 15:37:14,120.19219973581889
2024-05-26 15:37:14,119.12479352417103
2024-05-26 15:37:14,118.71425788043067
2024-05-26 15:37:14,119.11481893110587
2024-05-26 15:37:14,119.59332791743356
2024-05-26 15:37:14,120.01079030487519
2024-05-26 15:37:14,120.4365388212505
2024-05-26 15:37:14,120.3969255769761
2024-05-26 15:37:14,120.40233235877531
2024-05-26 15:37:14,120.92736139368024
2024-05-26 15:37:14,121.24580299341292
2024-05-26 15:37:14,121.01130198553588
2024-05-26 15:37:14,120.7908161617251
2024-05-26 15:37:14,120.84953680604879
2024-05-26 15:37:14,120.70238595704869
2024-05-26 15:37:14,120.5045113070572
2024-05-26 15:37:14,120.59958623432328
2024-05-26 15:37:14,120.62320383495812
2024-05-26 15:37:14,120.53048230703388
2024-05-26 15:37:14,121.05350401623109
2024-05-26 15:37:14,122.14475818628753
2024-05-26 15:37:14,111.58138976928517
2024-05-26 15:37:14,94.88609590679339
2024-05-26 15:37:14,99.8356185186396
2024-05-26 15:37:14,115.81507756523214
2024-05-26 15:37:14,120.55955182536887
2024-05-26 15:37:14,119.17076459099492
2024-05-26 15:37:14,120.25875906148167
2024-05-26 15:37:14,123.02392390044552
2024-05-26 15:37:14,122.74098971418026
2024-05-26 15:37:14,119.85624431275066
2024-05-26 15:37:14,118.49616858031257
2024-05-26 15:37:14,121.00185714028139
2024-05-26 15:37:14,124.95368767670536
2024-05-26 15:37:14,125.7189270851085
2024-05-26 15:37:14,122.32368282439518
2024-05-26 15:37:14,119.02514292701642
2024-05-26 15:37:14,119.33844501936359
2024-05-26 15:37:14,121.41415364243629
2024-05-26 15:37:14,121.90444151320919
2024-05-26 15:37:14,120.14538514684835
2024-05-26 15:37:14,118.08650321631511
2024-05-26 15:37:14,118.06284379357481
2024-05-26 15:37:14,119.8191008480125
2024-05-26 15:37:14,121.02762391165341
2024-05-26 15:37:14,120.8604319425904
2024-05-26 15:37:14,120.92825271368953
2024-05-26 15:37:14,122.24617398503298
2024-05-26 15:37:14,123.62307650857612
2024-05-26 15:37:14,124.15285614568755
2024-05-26 15:37:14,124.24449817503765
2024-05-26 15:37:14,124.91235547530653
2024-05-26 15:37:14,127.36282489007274
2024-05-26 15:37:14,131.7959961720412
2024-05-26 15:37:14,136.73150327673093
2024-05-26 15:37:14,140.57989394369082
2024-05-26 15:37:14,143.59180310970837
2024-05-26 15:37:14,146.8938229667515
2024-05-26 15:37:14,148.4649726018969
2024-05-26 15:37:14,143.52087606347501
2024-05-26 15:37:14,131.89970203348736
2024-05-26 15:37:14,119.35302988977055
2024-05-26 15:37:14,111.19403003720933
2024-05-26 15:37:14,108.87407721755262
2024-05-26 15:37:14,110.98706393191841
2024-05-26 15:37:14,115.29193061354391
2024-05-26 15:37:14,119.57311801939682
2024-05-26 15:37:14,122.00759152554936
2024-05-26 15:37:14,122.2389101283608
2024-05-26 15:37:14,121.52308987926551
2024-05-26 15:37:14,121.4080488041266
2024-05-26 15:37:14,122.01878085406531
2024-05-26 15:37:14,122.17345079603228
2024-05-26 15:37:14,121.62555701067811
2024-05-26 15:37:14,121.38112509436144
2024-05-26 15:37:15,122.03938616750528
2024-05-26 15:37:15,123.0553040800002
2024-05-26 15:37:15,123.82762947863563
2024-05-26 15:37:15,124.15320675423249
2024-05-26 15:37:15,123.76035940375654
2024-05-26 15:37:15,123.49525275436758
2024-05-26 15:37:15,124.47074679169181
2024-05-26 15:37:15,125.88060921853098
2024-05-26 15:37:15,126.44966165290778
2024-05-26 15:37:15,126.21966302396856
2024-05-26 15:37:15,126.04667983112675
2024-05-26 15:37:15,126.21613234480152
2024-05-26 15:37:15,126.61130517268775
2024-05-26 15:37:15,127.35828861277756
2024-05-26 15:37:15,127.97033142957449
2024-05-26 15:37:15,128.21733442021852
2024-05-26 15:37:15,128.4231809940765
2024-05-26 15:37:15,128.61229894035856
2024-05-26 15:37:15,129.16476635598576
2024-05-26 15:37:15,130.427402909687
2024-05-26 15:37:15,131.88014506144842
2024-05-26 15:37:15,132.69210941951013
2024-05-26 15:37:15,133.0736556550177
2024-05-26 15:37:15,133.51401138299718
2024-05-26 15:37:15,133.66268032871307
2024-05-26 15:37:15,134.14142740876193
2024-05-26 15:37:15,135.5245195879883
2024-05-26 15:37:15,136.63542208103223
2024-05-26 15:37:15,136.6568223924587
2024-05-26 15:37:15,135.94761528622809
2024-05-26 15:37:15,134.9914083622835
2024-05-26 15:37:15,133.88538891873674
2024-05-26 15:37:15,133.07228335245964
2024-05-26 15:37:15,133.2728536934742
2024-05-26 15:37:15,133.9604157903742
2024-05-26 15:37:15,134.31151709401766
2024-05-26 15:37:15,134.48083301921594
2024-05-26 15:37:15,134.17696540011738
2024-05-26 15:37:15,133.04281050216468
2024-05-26 15:37:15,131.51902006879047
2024-05-26 15:37:15,130.1167447882564
2024-05-26 15:37:15,129.02357927314793
2024-05-26 15:37:15,127.9066123821948
2024-05-26 15:37:15,126.65096733514329
2024-05-26 15:37:15,125.22392249703702
2024-05-26 15:37:15,123.88927722622499
2024-05-26 15:37:15,123.28069393956106
2024-05-26 15:37:15,122.66960160100273
2024-05-26 15:37:15,121.34437220266022
2024-05-26 15:37:15,120.03835224564077
2024-05-26 15:37:15,119.37590538862226
2024-05-26 15:37:15,119.15422908658908
2024-05-26 15:37:15,118.96009957869472
2024-05-26 15:37:15,118.98517804125109
2024-05-26 15:37:15,119.25721933015598
2024-05-26 15:37:15,119.48273064811042
2024-05-26 15:37:15,120.10781739251712
2024-05-26 15:37:15,121.07981320542363
2024-05-26 15:37:15,121.32920091769415
2024-05-26 15:37:15,120.51414648925577
2024-05-26 15:37:15,119.43962628540018
2024-05-26 15:37:15,118.75569186116272
2024-05-26 15:37:15,118.42669857354721
2024-05-26 15:37:15,118.57650006210093
2024-05-26 15:37:15,119.37559968036598
2024-05-26 15:37:15,120.51184132539957
2024-05-26 15:37:15,121.40614658884103
2024-05-26 15:37:15,121.57305864437433
2024-05-26 15:37:15,121.20246122948718
2024-05-26 15:37:15,120.63994608984605
2024-05-26 15:37:15,120.00002278310852
2024-05-26 15:37:15,119.54954201014237
2024-05-26 15:37:15,119.39148803140793
2024-05-26 15:37:15,119.53612457361382
2024-05-26 15:37:15,120.13107051583327
2024-05-26 15:37:15,120.93190974762524
2024-05-26 15:37:15,121.63387878047863
2024-05-26 15:37:15,122.03537731127818
2024-05-26 15:37:15,121.74765042660287
2024-05-26 15:37:15,121.08460238557699
2024-05-26 15:37:15,120.4617156226026
2024-05-26 15:37:15,119.73638322505867
2024-05-26 15:37:15,119.05294544490862
2024-05-26 15:37:15,118.83085898704245
2024-05-26 15:37:15,119.11573233779107
2024-05-26 15:37:15,119.58574900848265
2024-05-26 15:37:15,120.49256104497843
2024-05-26 15:37:15,121.72570264643119
2024-05-26 15:37:15,121.97087506645865
2024-05-26 15:37:15,121.33985268530691
2024-05-26 15:37:15,121.04622729106262
2024-05-26 15:37:15,121.04105328600619
2024-05-26 15:37:15,121.20278289662792
2024-05-26 15:37:15,121.89160674288817
2024-05-26 15:37:15,122.64695345801783
2024-05-26 15:37:15,122.67405444660164
2024-05-26 15:37:15,122.61478485533351
2024-05-26 15:37:15,122.91030582218552
2024-05-26 15:37:15,122.5584960628711
2024-05-26 15:37:15,121.79237374198473
2024-05-26 15:37:15,121.95858254192954
2024-05-26 15:37:15,122.83956526220581
2024-05-26 15:37:15,123.02884162113587
2024-05-26 15:37:15,122.4271190373736
2024-05-26 15:37:15,121.48750989420037
2024-05-26 15:37:15,119.91045300089127
2024-05-26 15:37:15,118.09238396353132
2024-05-26 15:37:15,117.32679818616919
2024-05-26 15:37:15,117.69980632593607
2024-05-26 15:37:15,117.88945445523277
2024-05-26 15:37:15,117.60057170049521
2024-05-26 15:37:15,117.45166329827103
2024-05-26 15:37:15,117.56030541490782
2024-05-26 15:37:15,117.8687007533633
2024-05-26 15:37:15,118.43146472074733
2024-05-26 15:37:15,119.2009976626025
2024-05-26 15:37:15,119.67755799988849
2024-05-26 15:37:15,119.43092897992598
2024-05-26 15:37:15,118.94651468050066
2024-05-26 15:37:15,119.36625857245235
2024-05-26 15:37:15,121.53508435002107
2024-05-26 15:37:15,124.89660222839348
2024-05-26 15:37:15,128.46060726551346
2024-05-26 15:37:15,132.59775308574575
2024-05-26 15:37:15,137.69337563538838
2024-05-26 15:37:15,142.67266049496556
2024-05-26 15:37:15,146.03990200349648
2024-05-26 15:37:15,146.3315970532443
2024-05-26 15:37:15,140.7219130571753
2024-05-26 15:37:15,128.43087643221054
2024-05-26 15:37:15,115.0977477468789
2024-05-26 15:37:15,106.99556692440255
2024-05-26 15:37:15,105.84630576339181
2024-05-26 15:37:15,110.2852661089056
2024-05-26 15:37:15,116.80463055590953
2024-05-26 15:37:15,121.49842606864534
2024-05-26 15:37:15,122.82303338962366
2024-05-26 15:37:15,122.20058436340258
2024-05-26 15:37:15,121.10059527464304
2024-05-26 15:37:15,119.36846659400506
2024-05-26 15:37:15,117.96097419094093
2024-05-26 15:37:15,117.87829319430303
2024-05-26 15:37:15,118.5189468442893
2024-05-26 15:37:15,120.27133232708232
2024-05-26 15:37:15,123.46226791871106
2024-05-26 15:37:15,125.42417403913831
2024-05-26 15:37:15,123.63516207564733
2024-05-26 15:37:15,120.0181521961317
2024-05-26 15:37:15,117.63807833832078
2024-05-26 15:37:15,117.72086237118229
2024-05-26 15:37:15,120.94857865461397
2024-05-26 15:37:15,125.80073436021979
2024-05-26 15:37:15,129.28238374764254
2024-05-26 15:37:15,130.28168945141846
2024-05-26 15:37:15,128.99439348995614
2024-05-26 15:37:15,126.35518573932063
2024-05-26 15:37:15,124.02624917231515
2024-05-26 15:37:15,123.234393455108
2024-05-26 15:37:15,124.68890004948162
2024-05-26 15:37:15,128.2333534207056
2024-05-26 15:37:15,130.97340305942626
2024-05-26 15:37:15,130.42491592195842
2024-05-26 15:37:15,128.1730231032384
2024-05-26 15:37:15,126.87245564758271
2024-05-26 15:37:15,127.42360528957607
2024-05-26 15:37:15,128.78292084133693
2024-05-26 15:37:15,129.04965902313756
2024-05-26 15:37:15,127.63272526602702
2024-05-26 15:37:15,126.63999631415322
2024-05-26 15:37:15,127.43211208946047
2024-05-26 15:37:15,128.50611809895724
2024-05-26 15:37:15,129.51446816328973
2024-05-26 15:37:15,130.92164420776976
2024-05-26 15:37:15,131.95677593467116
2024-05-26 15:37:15,133.53342127684576
2024-05-26 15:37:15,136.17711766427385
2024-05-26 15:37:15,136.75848394832607
2024-05-26 15:37:15,134.44340722599247
2024-05-26 15:37:15,132.3318423715624
2024-05-26 15:37:15,131.55753283735237
2024-05-26 15:37:15,131.8852633969962
2024-05-26 15:37:15,133.53752281082697
2024-05-26 15:37:15,133.6835231428064
2024-05-26 15:37:15,129.41208604446666
2024-05-26 15:37:15,123.54748073336002
2024-05-26 15:37:15,120.59892025409273
2024-05-26 15:37:15,120.69066595934882
2024-05-26 15:37:15,120.79050648063757
2024-05-26 15:37:15,119.46709600986516
2024-05-26 15:37:15,117.81112715482422
2024-05-26 15:37:15,117.46071459749737
2024-05-26 15:37:15,118.42848984031941
2024-05-26 15:37:15,119.32944486398011
2024-05-26 15:37:15,119.81811305163116
2024-05-26 15:37:15,119.34909892794235
2024-05-26 15:37:15,117.39919467438064
2024-05-26 15:37:15,115.81767057169647
2024-05-26 15:37:15,117.30495507546053
2024-05-26 15:37:15,121.19309209857215
2024-05-26 15:37:15,123.31326027849602
2024-05-26 15:37:15,121.85082947072814
2024-05-26 15:37:15,119.97313944661062
2024-05-26 15:37:15,120.90821251897707
2024-05-26 15:37:15,122.95947549488963
2024-05-26 15:37:15,123.68416684586424
2024-05-26 15:37:15,123.74401937027005
2024-05-26 15:37:15,123.74103906202106
2024-05-26 15:37:15,123.52219562925518
2024-05-26 15:37:15,123.56785717137244
2024-05-26 15:37:15,124.77405463907631
2024-05-26 15:37:15,127.42259508513496
2024-05-26 15:37:15,130.64297965010775
2024-05-26 15:37:15,132.5154735514641
2024-05-26 15:37:15,132.24618762059833
2024-05-26 15:37:15,132.3279383590344
2024-05-26 15:37:15,132.94880892765428
2024-05-26 15:37:15,131.0283074264046
2024-05-26 15:37:15,127.44425787541371
2024-05-26 15:37:15,125.35755921800649
2024-05-26 15:37:15,125.40147350169701
2024-05-26 15:37:15,126.29004689658495
2024-05-26 15:37:15,127.4581180748555
2024-05-26 15:37:15,128.6483517880524
2024-05-26 15:37:15,128.36109827899296
2024-05-26 15:37:15,127.55311739555913
2024-05-26 15:37:15,129.05553440069778
2024-05-26 15:37:15,132.4627654988951
2024-05-26 15:37:15,135.21405294093177
2024-05-26 15:37:15,135.6638708634756
2024-05-26 15:37:15,133.49456747432933
2024-05-26 15:37:15,129.77442335069736
2024-05-26 15:37:15,126.26586441804365
2024-05-26 15:37:15,124.2289088772131
2024-05-26 15:37:15,124.10909629717771
2024-05-26 15:37:15,125.84765898849017
2024-05-26 15:37:15,129.33895206351355
2024-05-26 15:37:15,133.02625033769337
2024-05-26 15:37:15,133.4004876893114
2024-05-26 15:37:15,129.31554345556566
2024-05-26 15:37:15,124.60704784495286
2024-05-26 15:37:15,122.19614750524077
2024-05-26 15:37:15,120.87156867688829
2024-05-26 15:37:15,120.29846951506066
2024-05-26 15:37:15,121.02646523140731
2024-05-26 15:37:15,121.24169939811429
2024-05-26 15:37:15,119.35925359366996
2024-05-26 15:37:15,116.40383064930057
2024-05-26 15:37:16,113.94251138130755
2024-05-26 15:37:16,111.45436174763776
2024-05-26 15:37:16,107.85722374310997
2024-05-26 15:37:16,104.01583599491354
2024-05-26 15:37:16,101.51988279651113
2024-05-26 15:37:16,101.17386936998975
2024-05-26 15:37:16,102.55167880531303
2024-05-26 15:37:16,103.85252413893183
2024-05-26 15:37:16,103.49375611454259
2024-05-26 15:37:16,101.88230901514129
2024-05-26 15:37:16,100.40890355528816
2024-05-26 15:37:16,99.60022758313953
2024-05-26 15:37:16,98.66858418974323
2024-05-26 15:37:16,96.75178840270033
2024-05-26 15:37:16,94.028259588158
2024-05-26 15:37:16,91.65623640931065
2024-05-26 15:37:16,90.87066631109914
2024-05-26 15:37:16,91.47330128610832
2024-05-26 15:37:16,92.91226164598672
2024-05-26 15:37:16,95.60149358861054
2024-05-26 15:37:16,98.90484020891755
2024-05-26 15:37:16,101.82128425231292
2024-05-26 15:37:16,105.1620423249218
2024-05-26 15:37:16,110.16346326615277
2024-05-26 15:37:16,117.18509368977129
2024-05-26 15:37:16,125.48222781793812
2024-05-26 15:37:16,131.29288295326342
2024-05-26 15:37:16,128.90819426006226
2024-05-26 15:37:16,116.90292305417567
2024-05-26 15:37:16,100.16324262595853
2024-05-26 15:37:16,86.30014205689824
2024-05-26 15:37:16,80.77087417458668
2024-05-26 15:37:16,83.71703949555786
2024-05-26 15:37:16,90.88454135111635
2024-05-26 15:37:16,97.1529417111941
2024-05-26 15:37:16,99.95969203090229
2024-05-26 15:37:16,99.85082023048558
2024-05-26 15:37:16,98.7414405779317
2024-05-26 15:37:16,98.73138340111144
2024-05-26 15:37:16,100.36980263651584
2024-05-26 15:37:16,101.78182707059834
2024-05-26 15:37:16,101.33918804185662
2024-05-26 15:37:16,99.6223255700689
2024-05-26 15:37:16,98.38029711773574
2024-05-26 15:37:16,98.82563443370977
2024-05-26 15:37:16,101.02024644444113
2024-05-26 15:37:16,104.07029937001676
2024-05-26 15:37:16,106.12694118403532
2024-05-26 15:37:16,106.61012780669562
2024-05-26 15:37:16,106.70830564766759
2024-05-26 15:37:16,106.0214332075071
2024-05-26 15:37:16,104.4716402877252
2024-05-26 15:37:16,104.3192986783552
2024-05-26 15:37:16,106.63472414171643
2024-05-26 15:37:16,109.4895131487708
2024-05-26 15:37:16,110.5684520300396
2024-05-26 15:37:16,109.63858315088183
2024-05-26 15:37:16,107.81243548685453
2024-05-26 15:37:16,106.56713361139695
2024-05-26 15:37:16,106.48874896063123
2024-05-26 15:37:16,106.36860129110482
2024-05-26 15:37:16,105.98283180275962
2024-05-26 15:37:16,106.86098839073108
2024-05-26 15:37:16,108.89016784854776
2024-05-26 15:37:16,110.27607812620636
2024-05-26 15:37:16,110.82915414645204
2024-05-26 15:37:16,111.92768608503056
2024-05-26 15:37:16,113.4288920706008
2024-05-26 15:37:16,114.10823274093623
2024-05-26 15:37:16,114.08212603301493
2024-05-26 15:37:16,114.02105137602638
2024-05-26 15:37:16,113.77120046165902
2024-05-26 15:37:16,113.66510993101811
2024-05-26 15:37:16,114.69486389050526
2024-05-26 15:37:16,115.85943227511378
2024-05-26 15:37:16,115.68512230898423
2024-05-26 15:37:16,115.12921461597963
2024-05-26 15:37:16,114.92235198913052
2024-05-26 15:37:16,113.92768037443676
2024-05-26 15:37:16,111.69687563864075
2024-05-26 15:37:16,109.18081974668911
2024-05-26 15:37:16,107.02374809866411
2024-05-26 15:37:16,105.83834775354885
2024-05-26 15:37:16,105.71556728386095
2024-05-26 15:37:16,105.05157977247195
2024-05-26 15:37:16,103.46280996679612
2024-05-26 15:37:16,102.76255685533113
2024-05-26 15:37:16,103.04111393154724
2024-05-26 15:37:16,102.47052709725816
2024-05-26 15:37:16,101.15182019673165
2024-05-26 15:37:16,99.737491590308
2024-05-26 15:37:16,97.42411499978928
2024-05-26 15:37:16,95.04560318654164
2024-05-26 15:37:16,94.29609440752165
2024-05-26 15:37:16,94.89692137363494
2024-05-26 15:37:16,95.87281034957688
2024-05-26 15:37:16,96.70133908936504
2024-05-26 15:37:16,97.00592090185637
2024-05-26 15:37:16,96.43119248489556
2024-05-26 15:37:16,95.78878975026451
2024-05-26 15:37:16,96.85015260633479
2024-05-26 15:37:16,99.14264771946392
2024-05-26 15:37:16,100.16995526257901
2024-05-26 15:37:16,99.17676815287342
2024-05-26 15:37:16,97.43038405684486
2024-05-26 15:37:16,96.15949925942286
2024-05-26 15:37:16,96.04699248047203
2024-05-26 15:37:16,97.01544692657276
2024-05-26 15:37:16,98.41228694484043
2024-05-26 15:37:16,99.50789990827788
2024-05-26 15:37:16,100.17081424637192
2024-05-26 15:37:16,100.08272764971866
2024-05-26 15:37:16,98.81394874680069
2024-05-26 15:37:16,97.86147068246953
2024-05-26 15:37:16,98.04475918897393
2024-05-26 15:37:16,98.85552053509474
2024-05-26 15:37:16,100.35912446648665
2024-05-26 15:37:16,102.0266939568711
2024-05-26 15:37:16,102.63867535324631
2024-05-26 15:37:16,101.41633444468516
2024-05-26 15:37:16,99.35943303287112
2024-05-26 15:37:16,98.16739120832963
2024-05-26 15:37:16,98.15011438047158
2024-05-26 15:37:16,99.07738947518338
2024-05-26 15:37:16,100.40717158462931
2024-05-26 15:37:16,100.993644449184
2024-05-26 15:37:16,100.55682828489239
2024-05-26 15:37:16,100.35429527732767
2024-05-26 15:37:16,101.3659342871042
2024-05-26 15:37:16,102.9885942380033
2024-05-26 15:37:16,104.48889403368412
2024-05-26 15:37:16,104.93377442674381
2024-05-26 15:37:16,103.47490069071392
2024-05-26 15:37:16,101.86568655901456
2024-05-26 15:37:16,102.0324861530583
2024-05-26 15:37:16,103.36125867638611
2024-05-26 15:37:16,104.88422869739962
2024-05-26 15:37:16,106.36881488115661
2024-05-26 15:37:16,107.34782469328054
2024-05-26 15:37:16,107.25622358334465
2024-05-26 15:37:16,106.98924967076529
2024-05-26 15:37:16,107.31085046073413
2024-05-26 15:37:16,107.62800128601187
2024-05-26 15:37:16,108.08974496142966
2024-05-26 15:37:16,108.84057955540325
2024-05-26 15:37:16,109.43598869063939
2024-05-26 15:37:16,109.6694198460803
2024-05-26 15:37:16,109.09004479428916
2024-05-26 15:37:16,107.48156064218207
2024-05-26 15:37:16,105.61656639905014
2024-05-26 15:37:16,104.62314373553932
2024-05-26 15:37:16,104.73026065135211
2024-05-26 15:37:16,105.58358991592364
2024-05-26 15:37:16,107.21425833866971
2024-05-26 15:37:16,108.82331473262667
2024-05-26 15:37:16,109.23478156879962
2024-05-26 15:37:16,108.90435802562625
2024-05-26 15:37:16,108.6990128436139
2024-05-26 15:37:16,108.88622876731512
2024-05-26 15:37:16,109.40363865804325
2024-05-26 15:37:16,109.93717478171946
2024-05-26 15:37:16,110.5715455818625
2024-05-26 15:37:16,111.0980558107308
2024-05-26 15:37:16,111.59594968614378
2024-05-26 15:37:16,113.57447582893839
2024-05-26 15:37:16,117.0481757496209
2024-05-26 15:37:16,120.59213309019965
2024-05-26 15:37:16,125.0263241321709
2024-05-26 15:37:16,131.46304819520884
2024-05-26 15:37:16,138.8889199305012
2024-05-26 15:37:16,145.87925716961473
2024-05-26 15:37:16,150.24609069477293
2024-05-26 15:37:16,147.01649067147997
2024-05-26 15:37:16,136.814998291027
2024-05-26 15:37:16,125.61480696891608
2024-05-26 15:37:16,112.63988628215282
2024-05-26 15:37:16,100.81656011973904
2024-05-26 15:37:16,100.55997297801729
2024-05-26 15:37:16,111.63483779736836
2024-05-26 15:37:16,120.48092407332044
2024-05-26 15:37:16,117.64147721229827
2024-05-26 15:37:16,109.64290377887781
2024-05-26 15:37:16,108.59370985608894
2024-05-26 15:37:16,115.41895230665465
2024-05-26 15:37:16,120.14392374806542
2024-05-26 15:37:16,116.40533046650205
2024-05-26 15:37:16,109.64770628153146
2024-05-26 15:37:16,109.13047054908688
2024-05-26 15:37:16,115.72467921707127
2024-05-26 15:37:16,121.75440535638579
2024-05-26 15:37:16,121.07797381973894
2024-05-26 15:37:16,116.32114076113055
2024-05-26 15:37:16,114.95728090933589
2024-05-26 15:37:16,118.87174875119354
2024-05-26 15:37:16,122.31469822976248
2024-05-26 15:37:16,120.97053702708625
2024-05-26 15:37:16,117.74867631642478
2024-05-26 15:37:16,117.99652633666376
2024-05-26 15:37:16,121.89041514064364
2024-05-26 15:37:16,124.97817714194805
2024-05-26 15:37:16,124.9342103421954
2024-05-26 15:37:16,123.39812671045189
2024-05-26 15:37:16,123.09621616381997
2024-05-26 15:37:16,124.84395641557035
2024-05-26 15:37:16,126.30184347755915
2024-05-26 15:37:16,125.73938381018975
2024-05-26 15:37:16,125.10203134752109
2024-05-26 15:37:16,126.47965294340266
2024-05-26 15:37:16,129.11110228161436
2024-05-26 15:37:16,130.9538526881868
2024-05-26 15:37:16,131.06872848827464
2024-05-26 15:37:16,130.5827485965464
2024-05-26 15:37:16,131.42751910398047
2024-05-26 15:37:16,133.48962161264433
2024-05-26 15:37:16,134.5620386469979
2024-05-26 15:37:16,133.99509573210747
2024-05-26 15:37:16,133.2365668938165
2024-05-26 15:37:16,133.1112069226865
2024-05-26 15:37:16,133.4419366379574
2024-05-26 15:37:16,133.8782322196108
2024-05-26 15:37:16,133.9781811371009
2024-05-26 15:37:16,133.42451570069892
2024-05-26 15:37:16,132.55369968960366
2024-05-26 15:37:16,131.67329861438319
2024-05-26 15:37:16,129.98155683857087
2024-05-26 15:37:16,127.3036038579871
2024-05-26 15:37:16,124.96694188622178
2024-05-26 15:37:16,123.99917759139625
2024-05-26 15:37:16,124.43257691236246
2024-05-26 15:37:16,125.19041989187663
2024-05-26 15:37:16,124.63075079541215
2024-05-26 15:37:16,122.58312051575071
2024-05-26 15:37:16,120.17052736346596
2024-05-26 15:37:16,118.2391812263359
2024-05-26 15:37:16,117.25828459136174
2024-05-26 15:37:16,117.11180960877967
2024-05-26 15:37:16,117.24235549708416
2024-05-26 15:37:16,117.16787853220299
2024-05-26 15:37:16,116.72178156855381
2024-05-26 15:37:16,116.56600544918628
2024-05-26 15:37:16,117.37748446435121
2024-05-26 15:37:16,118.29301689540029
2024-05-26 15:37:16,118.41495319901678
2024-05-26 15:37:16,118.26489872386358
2024-05-26 15:37:16,117.84972370072545
2024-05-26 15:37:17,117.05247985045347
2024-05-26 15:37:17,116.96164010933285
2024-05-26 15:37:17,117.79090601763252
2024-05-26 15:37:17,118.20647743679889
2024-05-26 15:37:17,117.9453265367479
2024-05-26 15:37:17,118.16931562771823
2024-05-26 15:37:17,118.80657455241065
2024-05-26 15:37:17,119.07419745171794
2024-05-26 15:37:17,119.27302816753216
2024-05-26 15:37:17,119.40316476121923
2024-05-26 15:37:17,118.95215100025854
2024-05-26 15:37:17,118.33883298704043
2024-05-26 15:37:17,118.03750419535235
2024-05-26 15:37:17,118.10869437413744
2024-05-26 15:37:17,118.60387863793456
2024-05-26 15:37:17,119.22772997567594
2024-05-26 15:37:17,119.4283555173336
2024-05-26 15:37:17,118.77445857753364
2024-05-26 15:37:17,117.88233647854476
2024-05-26 15:37:17,117.46486112292864
2024-05-26 15:37:17,117.14989906871998
2024-05-26 15:37:17,117.29386954131458
2024-05-26 15:37:17,118.33597552602839
2024-05-26 15:37:17,119.16042518871818
2024-05-26 15:37:17,119.02025232877025
2024-05-26 15:37:17,118.4950239775208
2024-05-26 15:37:17,118.13187615558397
2024-05-26 15:37:17,117.69495171755521
2024-05-26 15:37:17,117.02124490234756
2024-05-26 15:37:17,116.48774521330742
2024-05-26 15:37:17,116.42968231062173
2024-05-26 15:37:17,117.12355930124002
2024-05-26 15:37:17,118.05148402905206
2024-05-26 15:37:17,118.17979477685921
2024-05-26 15:37:17,117.68937386217662
2024-05-26 15:37:17,117.64611323914148
2024-05-26 15:37:17,118.66903662150654
2024-05-26 15:37:17,119.95549079716247
2024-05-26 15:37:17,120.15445955616727
2024-05-26 15:37:17,119.48509084135475
2024-05-26 15:37:17,118.91452566951337
2024-05-26 15:37:17,118.77510141992444
2024-05-26 15:37:17,119.03837077513288
2024-05-26 15:37:17,119.60375902783223
2024-05-26 15:37:17,120.1731708425381
2024-05-26 15:37:17,120.37530313652329
2024-05-26 15:37:17,120.31074386721592
2024-05-26 15:37:17,120.09982726124605
2024-05-26 15:37:17,119.9165013868107
2024-05-26 15:37:17,119.79452087004765
2024-05-26 15:37:17,118.92140201172754
2024-05-26 15:37:17,117.07468541985321
2024-05-26 15:37:17,115.28112793427998
2024-05-26 15:37:17,114.35260441770046
2024-05-26 15:37:17,114.73468547745483
2024-05-26 15:37:17,115.96504264793681
2024-05-26 15:37:17,116.56062098633662
2024-05-26 15:37:17,116.07331374093987
2024-05-26 15:37:17,115.2789088896612
2024-05-26 15:37:17,115.1182982069194
2024-05-26 15:37:17,116.16222195821209
2024-05-26 15:37:17,118.2259334590487
2024-05-26 15:37:17,120.48057987897292
2024-05-26 15:37:17,122.26585358384108
2024-05-26 15:37:17,123.42534212733243
2024-05-26 15:37:17,124.11977912408264
2024-05-26 15:37:17,125.77923212199913
2024-05-26 15:37:17,129.95879261087958
2024-05-26 15:37:17,136.21885561794483
2024-05-26 15:37:17,143.37500606442765
2024-05-26 15:37:17,149.56801731765984
2024-05-26 15:37:17,150.9136403093177
2024-05-26 15:37:17,144.24030151729522
2024-05-26 15:37:17,131.23109373389659
2024-05-26 15:37:17,117.42574157122895
2024-05-26 15:37:17,107.86449942803921
2024-05-26 15:37:17,104.6463383382922
2024-05-26 15:37:17,107.05792136688459
2024-05-26 15:37:17,112.66280270151543
2024-05-26 15:37:17,118.03074232088558
2024-05-26 15:37:17,120.2213268034381
2024-05-26 15:37:17,119.05277779726458
2024-05-26 15:37:17,116.90146048324607
2024-05-26 15:37:17,115.80465513292845
2024-05-26 15:37:17,115.69147564670374
2024-05-26 15:37:17,115.51499674240866
2024-05-26 15:37:17,115.01863045860266
2024-05-26 15:37:17,114.92337263850591
2024-05-26 15:37:17,115.66487595610572
2024-05-26 15:37:17,116.68394077151406
2024-05-26 15:37:17,117.1636271447773
2024-05-26 15:37:17,116.93549745794924
2024-05-26 15:37:17,117.04440753546736
2024-05-26 15:37:17,117.84073206727273
2024-05-26 15:37:17,118.01263436433707
2024-05-26 15:37:17,117.8334612213254
2024-05-26 15:37:17,118.66503559077505
2024-05-26 15:37:17,120.1450835336301
2024-05-26 15:37:17,121.09318342349377
2024-05-26 15:37:17,121.23866807360243
2024-05-26 15:37:17,121.36849191637509
2024-05-26 15:37:17,121.60410626491111
2024-05-26 15:37:17,121.65865520500031
2024-05-26 15:37:17,121.71696622511543
2024-05-26 15:37:17,121.43304750165109
2024-05-26 15:37:17,121.1647596449152
2024-05-26 15:37:17,121.68572620408641
2024-05-26 15:37:17,122.80643475742379
2024-05-26 15:37:17,124.51948463119173
2024-05-26 15:37:17,126.48932550869529
2024-05-26 15:37:17,127.7360480846535
2024-05-26 15:37:17,128.18277265454654
2024-05-26 15:37:17,128.14217053041563
2024-05-26 15:37:17,127.7475189450104
2024-05-26 15:37:17,127.69452638511092
2024-05-26 15:37:17,128.31332429455665
2024-05-26 15:37:17,129.03796187540317
2024-05-26 15:37:17,129.35455455299567
2024-05-26 15:37:17,128.87803149414978
2024-05-26 15:37:17,127.46312616064283
2024-05-26 15:37:17,126.01647911165357
2024-05-26 15:37:17,125.37714623480666
2024-05-26 15:37:17,125.40757144744252
2024-05-26 15:37:17,125.76226109251847
2024-05-26 15:37:17,125.57531716555108
2024-05-26 15:37:17,124.76527943066266
2024-05-26 15:37:17,124.82973669980778
2024-05-26 15:37:17,126.05412420971749
2024-05-26 15:37:17,126.47228218111768
2024-05-26 15:37:17,124.35706973335412
2024-05-26 15:37:17,120.1529043520532
2024-05-26 15:37:17,115.77982756753877
2024-05-26 15:37:17,112.8802202620383
2024-05-26 15:37:17,111.86907275192127
2024-05-26 15:37:17,111.8558850276291
2024-05-26 15:37:17,111.52775894926634
2024-05-26 15:37:17,111.0636280688764
2024-05-26 15:37:17,111.3189374209853
2024-05-26 15:37:17,111.92500176445787
2024-05-26 15:37:17,112.30328562761508
2024-05-26 15:37:17,112.49239005999077
2024-05-26 15:37:17,112.46524327087967
2024-05-26 15:37:17,112.34620773137087
2024-05-26 15:37:17,112.60580339706868
2024-05-26 15:37:17,112.66755390234019
2024-05-26 15:37:17,111.73166288631862
2024-05-26 15:37:17,110.87223023508444
2024-05-26 15:37:17,111.2013432366026
2024-05-26 15:37:17,112.06976359571726
2024-05-26 15:37:17,112.63620874946751
2024-05-26 15:37:17,112.78578377540256
2024-05-26 15:37:17,112.46059111371774
2024-05-26 15:37:17,111.72595972381316
2024-05-26 15:37:17,111.13723925947657
2024-05-26 15:37:17,111.26447926706646
2024-05-26 15:37:17,112.31699045544485
2024-05-26 15:37:17,113.9241057418915
2024-05-26 15:37:17,114.90204544757536
2024-05-26 15:37:17,114.875630164378
2024-05-26 15:37:17,115.00337408808876
2024-05-26 15:37:17,115.29085592034568
2024-05-26 15:37:17,114.39588157513394
2024-05-26 15:37:17,112.51332589975586
2024-05-26 15:37:17,111.48316388152897
2024-05-26 15:37:17,112.42875623602104
2024-05-26 15:37:17,113.8527584602467
2024-05-26 15:37:17,113.93054440004512
2024-05-26 15:37:17,113.46911924604203
2024-05-26 15:37:17,113.25962274604103
2024-05-26 15:37:17,112.8337727537888
2024-05-26 15:37:17,112.46261233802
2024-05-26 15:37:17,112.8438790818317
2024-05-26 15:37:17,113.82038563459857
2024-05-26 15:37:17,114.72293264601511
2024-05-26 15:37:17,115.54601404553682
2024-05-26 15:37:17,116.2347324852166
2024-05-26 15:37:17,116.2943112102111
2024-05-26 15:37:17,115.75725970987087
2024-05-26 15:37:17,114.85722362946461
2024-05-26 15:37:17,114.06072565981091
2024-05-26 15:37:17,113.65905740729629
2024-05-26 15:37:17,113.3840064716889
2024-05-26 15:37:17,113.35926673129666
2024-05-26 15:37:17,114.14542635388791
2024-05-26 15:37:17,115.58023737002009
2024-05-26 15:37:17,116.85979745600079
2024-05-26 15:37:17,117.69032513265196
2024-05-26 15:37:17,117.92913608745519
2024-05-26 15:37:17,117.14590811941649
2024-05-26 15:37:17,115.59288677458808
2024-05-26 15:37:17,114.51917995859925
2024-05-26 15:37:17,114.7923762839623
2024-05-26 15:37:17,115.82620557614115
2024-05-26 15:37:17,116.52985324922689
2024-05-26 15:37:17,116.66474635005528
2024-05-26 15:37:17,116.2371360766918
2024-05-26 15:37:17,115.54263443507554
2024-05-26 15:37:17,115.12303144688468
2024-05-26 15:37:17,114.6158195504242
2024-05-26 15:37:17,113.8482153133654
2024-05-26 15:37:17,113.47042541089009
2024-05-26 15:37:17,113.66969750774601
2024-05-26 15:37:17,113.62974865345124
2024-05-26 15:37:17,113.0675407363408
2024-05-26 15:37:17,112.92564644364523
2024-05-26 15:37:17,113.23132509570544
2024-05-26 15:37:17,113.18241387641073
2024-05-26 15:37:17,113.23776662913906
2024-05-26 15:37:17,113.83428185726014
2024-05-26 15:37:17,114.45365941076284
2024-05-26 15:37:17,115.45871998761751
2024-05-26 15:37:17,117.44187161825454
2024-05-26 15:37:17,120.16386195423762
2024-05-26 15:37:17,123.68154388644854
2024-05-26 15:37:17,128.254093199446
2024-05-26 15:37:17,133.51897236161105
2024-05-26 15:37:17,138.66721976449347
2024-05-26 15:37:17,142.87362087368692
2024-05-26 15:37:17,144.1547032316599
2024-05-26 15:37:17,139.0416761276863
2024-05-26 15:37:17,127.17701448517035
2024-05-26 15:37:17,113.40125001099238
2024-05-26 15:37:17,103.51788398324607
2024-05-26 15:37:17,100.1505581082439
2024-05-26 15:37:17,102.20575192907629
2024-05-26 15:37:17,106.89612702395013
2024-05-26 15:37:17,110.87119675040817
2024-05-26 15:37:17,112.38184496140586
2024-05-26 15:37:17,112.30123787753368
2024-05-26 15:37:17,111.55938514762113
2024-05-26 15:37:17,111.17534281634457
2024-05-26 15:37:17,111.82435063427982
2024-05-26 15:37:17,112.54326506871614
2024-05-26 15:37:17,112.74948250849494
2024-05-26 15:37:17,113.09419736911717
2024-05-26 15:37:17,114.31100919137972
2024-05-26 15:37:17,115.91414691850505
2024-05-26 15:37:17,116.29054286309713
2024-05-26 15:37:17,115.20709790664672
2024-05-26 15:37:17,114.68842809448003
2024-05-26 15:37:17,115.8951832904088
2024-05-26 15:37:17,117.27687178919116
2024-05-26 15:37:17,117.35907526307501
2024-05-26 15:37:17,116.45129223433062
2024-05-26 15:37:17,115.27983475379438
2024-05-26 15:37:17,114.75946697831223
2024-05-26 15:37:17,115.50295367693384
2024-05-26 15:37:17,116.73270059924852
2024-05-26 15:37:17,117.69271493801364
2024-05-26 15:37:17,118.71570622765664
2024-05-26 15:37:18,120.18012490508605
2024-05-26 15:37:18,121.98754067493523
2024-05-26 15:37:18,123.46302525287817
2024-05-26 15:37:18,123.76735991384601
2024-05-26 15:37:18,123.01916810719834
2024-05-26 15:37:18,122.37554509377847
2024-05-26 15:37:18,122.78575719444055
2024-05-26 15:37:18,124.31742029291121
2024-05-26 15:37:18,125.95769581630795
2024-05-26 15:37:18,126.26785416033736
2024-05-26 15:37:18,125.63405218029445
2024-05-26 15:37:18,125.55722832312752
2024-05-26 15:37:18,126.25378560763164
2024-05-26 15:37:18,127.46298865897322
2024-05-26 15:37:18,128.91596100411135
2024-05-26 15:37:18,129.97305666844008
2024-05-26 15:37:18,130.33288287936875
2024-05-26 15:37:18,129.9110401914101
2024-05-26 15:37:18,129.40089625302497
2024-05-26 15:37:18,129.4304422675069
2024-05-26 15:37:18,129.12961197007948
2024-05-26 15:37:18,128.0355935698593
2024-05-26 15:37:18,126.50576076905692
2024-05-26 15:37:18,125.07797458730208
2024-05-26 15:37:18,124.5441225206051
2024-05-26 15:37:18,124.84752626096481
2024-05-26 15:37:18,124.41433952605321
2024-05-26 15:37:18,122.14476829676299
2024-05-26 15:37:18,119.64230759954114
2024-05-26 15:37:18,118.06545026729037
2024-05-26 15:37:18,116.82545183445386
2024-05-26 15:37:18,116.51240449605122
2024-05-26 15:37:18,117.120612910564
2024-05-26 15:37:18,117.09863212230778
2024-05-26 15:37:18,115.89123689144684
2024-05-26 15:37:18,114.24177623937845
2024-05-26 15:37:18,113.07742082567506
2024-05-26 15:37:18,112.73427361565155
2024-05-26 15:37:18,113.2348613388502
2024-05-26 15:37:18,114.38816604958154
2024-05-26 15:37:18,115.0286388743803
2024-05-26 15:37:18,114.8242241786683
2024-05-26 15:37:18,114.90354650523054
2024-05-26 15:37:18,115.12129091197689
2024-05-26 15:37:18,114.91505135533855
2024-05-26 15:37:18,114.57490364991462
2024-05-26 15:37:18,114.12760857375405
2024-05-26 15:37:18,113.49829753719227
2024-05-26 15:37:18,112.90450847729556
2024-05-26 15:37:18,112.8013490046013
2024-05-26 15:37:18,113.4937501577877
2024-05-26 15:37:18,114.94297356058556
2024-05-26 15:37:18,116.6893820275268
2024-05-26 15:37:18,117.54899041584169
2024-05-26 15:37:18,117.23747042612602
2024-05-26 15:37:18,116.94216534322179
2024-05-26 15:37:18,116.97215349720956
2024-05-26 15:37:18,116.81310411965433
2024-05-26 15:37:18,116.38258473519065
2024-05-26 15:37:18,116.01963034546533
2024-05-26 15:37:18,115.96090836223306
2024-05-26 15:37:18,116.21358245029845
2024-05-26 15:37:18,116.68795773442265
2024-05-26 15:37:18,116.42638422573602
2024-05-26 15:37:18,115.1421167150536
2024-05-26 15:37:18,114.10675689672877
2024-05-26 15:37:18,113.84562507487635
2024-05-26 15:37:18,113.87582190201381
2024-05-26 15:37:18,114.26449325246023
2024-05-26 15:37:18,115.23395941109919
2024-05-26 15:37:18,116.28385792697226
2024-05-26 15:37:18,116.89815272741393
2024-05-26 15:37:18,116.99342036028268
2024-05-26 15:37:18,116.65431475250769
2024-05-26 15:37:18,115.93293650568916
2024-05-26 15:37:18,114.95306517866261
2024-05-26 15:37:18,114.25690166981833
2024-05-26 15:37:18,114.66819276861278
2024-05-26 15:37:18,116.06888396917911
2024-05-26 15:37:18,117.34733000273151
2024-05-26 15:37:18,117.81237958102066
2024-05-26 15:37:18,117.21706082093164
2024-05-26 15:37:18,116.52403010156401
2024-05-26 15:37:18,116.89230383496498
2024-05-26 15:37:18,117.40919355797804
2024-05-26 15:37:18,117.38551058528682
2024-05-26 15:37:18,117.42215885592373
2024-05-26 15:37:18,117.56378704940693
2024-05-26 15:37:18,117.35860851821293
2024-05-26 15:37:18,116.90958686120014
2024-05-26 15:37:18,116.52675820923773
2024-05-26 15:37:18,116.29390678614732
2024-05-26 15:37:18,116.78640169347922
2024-05-26 15:37:18,118.23211560770883
2024-05-26 15:37:18,119.43028488648858
2024-05-26 15:37:18,119.47205380155124
2024-05-26 15:37:18,118.25737186887473
2024-05-26 15:37:18,116.10495584923095
2024-05-26 15:37:18,114.18602988649742
2024-05-26 15:37:18,113.47836935333912
2024-05-26 15:37:18,113.75356812560563
2024-05-26 15:37:18,114.21479756763372
2024-05-26 15:37:18,114.81758451843388
2024-05-26 15:37:18,115.23109305329137
2024-05-26 15:37:18,114.67184187260594
2024-05-26 15:37:18,114.06195947088838
2024-05-26 15:37:18,114.49720288621276
2024-05-26 15:37:18,115.31208457870147
2024-05-26 15:37:18,115.52961450754741
2024-05-26 15:37:18,115.28181409125824
2024-05-26 15:37:18,115.80661926440965
2024-05-26 15:37:18,117.60478771282085
2024-05-26 15:37:18,119.15914719575036
2024-05-26 15:37:18,119.59237641425683
2024-05-26 15:37:18,120.44703337568683
2024-05-26 15:37:18,123.62400898562397
2024-05-26 15:37:18,129.8129409662869
2024-05-26 15:37:18,137.83676136230758
2024-05-26 15:37:18,145.12499936411754
2024-05-26 15:37:18,149.1364468384454
2024-05-26 15:37:18,146.89982427955064
2024-05-26 15:37:18,136.59115117336444
2024-05-26 15:37:18,121.60887921866227
2024-05-26 15:37:18,108.67488181938388
2024-05-26 15:37:18,101.81920195943648
2024-05-26 15:37:18,101.46003332921808
2024-05-26 15:37:18,106.10325221972877
2024-05-26 15:37:18,111.9854763334487
2024-05-26 15:37:18,115.2875487515318
2024-05-26 15:37:18,115.44168994621204
2024-05-26 15:37:18,114.24610961722473
2024-05-26 15:37:18,113.66973099952492
2024-05-26 15:37:18,114.14663604986066
2024-05-26 15:37:18,114.69724000346713
2024-05-26 15:37:18,114.45771162900803
2024-05-26 15:37:18,113.50126553170004
2024-05-26 15:37:18,113.20807658461806
2024-05-26 15:37:18,114.62208973519283
2024-05-26 15:37:18,117.12411391907281
2024-05-26 15:37:18,118.89598626597419
2024-05-26 15:37:18,118.72696301795096
2024-05-26 15:37:18,117.36354290026728
2024-05-26 15:37:18,116.1183810354728
2024-05-26 15:37:18,115.8916317510119
2024-05-26 15:37:18,116.4718529562125
2024-05-26 15:37:18,117.23543176607623
2024-05-26 15:37:18,118.22261297016207
2024-05-26 15:37:18,118.89440445077524
2024-05-26 15:37:18,118.63452710170645
2024-05-26 15:37:18,118.03199595074855
2024-05-26 15:37:18,117.98221874699752
2024-05-26 15:37:18,118.47872749260627
2024-05-26 15:37:18,119.32824466042524
2024-05-26 15:37:18,120.89134155484045
2024-05-26 15:37:18,122.7324807977154
2024-05-26 15:37:18,123.85799336708216
2024-05-26 15:37:18,124.57412636134252
2024-05-26 15:37:18,125.506222314593
2024-05-26 15:37:18,126.18773812293435
2024-05-26 15:37:18,126.29272202831447
2024-05-26 15:37:18,126.2804344692535
2024-05-26 15:37:18,126.37839343273563
2024-05-26 15:37:18,126.49532638137524
2024-05-26 15:37:18,126.63526965689486
2024-05-26 15:37:18,126.81701326174314
2024-05-26 15:37:18,127.06360779854461
2024-05-26 15:37:18,127.43268635336585
2024-05-26 15:37:18,127.93685939869727
2024-05-26 15:37:18,128.16121790456717
2024-05-26 15:37:18,127.86609810068998
2024-05-26 15:37:18,127.56492219756005
2024-05-26 15:37:18,127.34233684255
2024-05-26 15:37:18,126.73341470762834
2024-05-26 15:37:18,125.87580505977687
2024-05-26 15:37:18,125.4686903856692
2024-05-26 15:37:18,125.17906306215383
2024-05-26 15:37:18,124.212613519393
2024-05-26 15:37:18,122.860765166347
2024-05-26 15:37:18,121.65010346780886
2024-05-26 15:37:18,120.49931921133755
2024-05-26 15:37:18,118.61606323970949
2024-05-26 15:37:18,115.96658771846002
2024-05-26 15:37:18,113.80617160752816
2024-05-26 15:37:18,112.93781035709281
2024-05-26 15:37:18,113.14249912019709
2024-05-26 15:37:18,113.69314184453187
2024-05-26 15:37:18,114.36602630904457
2024-05-26 15:37:18,115.1668989316455
2024-05-26 15:37:18,115.13494091920616
2024-05-26 15:37:18,114.1729430035593
2024-05-26 15:37:18,113.22774298940813
2024-05-26 15:37:18,112.48516588601413
2024-05-26 15:37:18,111.99637627996393
2024-05-26 15:37:18,112.03958729204555
2024-05-26 15:37:18,112.76686612390252
2024-05-26 15:37:18,113.64803394667035
2024-05-26 15:37:18,114.38688115833139
2024-05-26 15:37:18,115.3912335913525
2024-05-26 15:37:18,115.99869819873057
2024-05-26 15:37:18,115.58337421297732
2024-05-26 15:37:18,114.94822746898579
2024-05-26 15:37:18,114.69759262873917
2024-05-26 15:37:18,114.51872515250875
2024-05-26 15:37:18,114.4173838593332
2024-05-26 15:37:18,114.7123209444361
2024-05-26 15:37:18,115.1355126477647
2024-05-26 15:37:18,115.19325937240582
2024-05-26 15:37:18,114.98933247920361
2024-05-26 15:37:18,114.82875601543456
2024-05-26 15:37:18,114.76047923803955
2024-05-26 15:37:18,115.43263352037735
2024-05-26 15:37:18,116.45505186200677
2024-05-26 15:37:18,116.37083274023942
2024-05-26 15:37:18,115.40023354358863
2024-05-26 15:37:18,114.56070322555703
2024-05-26 15:37:18,114.27717477166617
2024-05-26 15:37:18,114.30126662719718
2024-05-26 15:37:18,114.4599387734059
2024-05-26 15:37:18,115.04014022132542
2024-05-26 15:37:18,115.77859808732082
2024-05-26 15:37:18,116.38586508276154
2024-05-26 15:37:18,116.52869532553382
2024-05-26 15:37:18,115.77613580572316
2024-05-26 15:37:18,114.60540727508409
2024-05-26 15:37:18,113.78249606579847
2024-05-26 15:37:18,113.54196040744691
2024-05-26 15:37:18,113.60682359991007
2024-05-26 15:37:18,114.17072763304452
2024-05-26 15:37:18,115.17574405467572
2024-05-26 15:37:18,115.54799433899444
2024-05-26 15:37:18,115.30782959885278
2024-05-26 15:37:18,115.21913325821188
2024-05-26 15:37:18,115.17762191182373
2024-05-26 15:37:18,114.98408537729941
2024-05-26 15:37:18,115.13313776961695
2024-05-26 15:37:18,115.82742319532827
2024-05-26 15:37:18,116.45169704025368
2024-05-26 15:37:18,116.78786579057379
2024-05-26 15:37:18,116.55059180790026
