Timestamp,Channel_1,Channel_2,Channel_3,Channel_4,Channel_5
2024-05-26 15:50:35,176.13317909282753,100.30127439540412,107.08515872311915,115.91268657772689,84.04334510613742
2024-05-26 15:50:35,175.2919407347676,99.59393454342494,106.40988476781018,115.46825534327151,82.00463451915985
2024-05-26 15:50:35,175.18432497844563,99.4486804097899,106.64148472347719,115.56469813416813,81.05701119476284
2024-05-26 15:50:35,175.74543537267607,100.00305316137114,107.76861119508852,116.04545135807088,81.10156499416152
2024-05-26 15:50:35,176.50101722239592,101.21094186570993,109.23653958379194,116.63511729386155,81.15529559429761
2024-05-26 15:50:35,176.9687531525953,102.66353086241183,110.34021561070428,117.3068362896472,80.77603295121664
2024-05-26 15:50:35,176.83674510518276,103.32376904910004,110.36813574129549,117.42789035251107,79.6897909142365
2024-05-26 15:50:35,176.39891748379887,102.89448135197543,109.35734616935441,116.42830549918186,77.76031773869178
2024-05-26 15:50:35,176.81416058358948,102.80760309974656,108.86791035329311,115.63794200050593,76.44042995523
2024-05-26 15:50:35,178.03116226245368,103.46013959840423,109.41708087936627,115.57996641028785,76.39187842391587
2024-05-26 15:50:35,178.18134375971394,103.26040051024363,109.32408270814459,114.37926888809297,75.56414699027879
2024-05-26 15:50:35,176.86127746483442,102.11431396786362,107.92548024672332,111.66838852078976,73.15628634684845
2024-05-26 15:50:35,175.82514068295507,101.93048246779269,106.88199652504453,109.80688154278135,71.29400875232898
2024-05-26 15:50:35,177.29486880303372,104.32412550817833,108.53387912395912,111.406320902681,72.6272348338139
2024-05-26 15:50:35,180.85779998398385,108.18670979331131,112.5315568708076,115.69293465551664,76.65906710917736
2024-05-26 15:50:35,182.9821359351814,109.88010111029214,115.05556130694997,118.12210129984345,79.19020699697889
2024-05-26 15:50:35,182.20493861329666,108.44526634881865,114.47183013487096,116.85867077390442,78.18768783672633
2024-05-26 15:50:35,179.94733766140888,106.26833046603002,112.81859306738144,114.3940631340911,75.76825409013473
2024-05-26 15:50:35,178.16144309291755,105.54976519531839,112.01990102522285,113.34476093615237,74.80889574420438
2024-05-26 15:50:35,177.8174812574285,106.85687856196998,112.37426026121283,114.13068355225012,76.18845706459754
2024-05-26 15:50:35,177.23477488755597,107.82638751602127,112.19128817472061,114.23693986730447,77.31969579901975
2024-05-26 15:50:35,174.2504713650123,105.76423688167587,109.41248272851497,111.13580065022728,75.19374336109108
2024-05-26 15:50:35,169.79862877903355,102.00837872047178,104.75392089293457,106.30687299643316,70.81764805776248
2024-05-26 15:50:35,167.32709449899352,100.29046742816756,101.82788468850359,103.89596443344706,68.2070241897575
2024-05-26 15:50:35,168.00609568981645,101.72100138608529,102.2778250335331,105.04264869740614,68.78706784879243
2024-05-26 15:50:35,170.150958861032,104.6326742784403,104.65272852697719,107.81880571100544,70.91969973707513
2024-05-26 15:50:35,172.8485299328294,108.05980642961443,107.93788697041371,111.1972373355195,73.93537805806153
2024-05-26 15:50:35,175.8195407463067,111.73327982816026,111.52831119686547,114.86768697005121,77.68800407471518
2024-05-26 15:50:35,178.11920598329888,114.43470827511838,114.0432329448259,117.52662604051389,80.76508786388568
2024-05-26 15:50:35,178.49197234656097,114.8419247180722,114.15143261411119,117.51465972093732,81.3165048420887
2024-05-26 15:50:35,177.35970371740507,113.81876447951434,112.85191183874724,115.68537178875462,79.9038700626415
2024-05-26 15:50:35,176.5189696031363,113.3463909738135,112.26184041458082,114.24446799701775,78.63498055111728
2024-05-26 15:50:35,176.42408114298607,113.65274894989466,112.57032861790833,113.76022049740033,78.15428046082694
2024-05-26 15:50:35,176.67488773124398,113.95379128505814,112.99984100323988,113.85378466811254,78.37401424340301
2024-05-26 15:50:35,177.75886914959966,114.83491228075961,113.79110706720991,114.82087938923074,79.81064080927295
2024-05-26 15:50:35,180.66781137725954,118.12103368890823,116.28447484011906,118.08157758161866,83.58200118966766
2024-05-26 15:50:35,185.5194545513621,123.95650714163993,120.91184321411292,123.95814951729785,89.87389794049972
2024-05-26 15:50:35,190.49053931941882,129.5308843117861,125.70151311322348,129.6522808393555,96.26530288107773
2024-05-26 15:50:35,193.7550954368609,132.76171323213546,128.85571156967586,132.80402870996645,100.42762603759297
2024-05-26 15:50:35,196.48447953950154,135.1636257770056,131.36800804260483,135.11787872361143,103.89054234875897
2024-05-26 15:50:35,200.3288843507849,138.59222898436957,134.14976602999283,138.52541549812088,108.65017565880058
2024-05-26 15:50:35,204.1600148837,142.30736047330382,136.10296048545985,142.15682244175096,113.54421105208937
2024-05-26 15:50:35,205.08215714659048,143.23353539836137,135.24213818317284,142.9965038045751,115.25254388153515
2024-05-26 15:50:35,199.866579744363,137.68317114413156,128.88390879462747,137.01998528008778,109.78073690948942
2024-05-26 15:50:35,188.15270229541485,125.73057024641953,116.93940519438979,124.16992104566283,96.70734992398407
2024-05-26 15:50:35,175.64367971322866,113.40264225799267,105.32897576757658,111.48359118699275,82.90468466324448
2024-05-26 15:50:35,168.9418286720918,107.00838553275479,100.4947648722308,106.21751685674157,76.37894288858388
2024-05-26 15:50:35,168.3536166653343,106.62317332710472,101.81147126855066,107.86063736480341,77.31675031597395
2024-05-26 15:50:35,169.84523679820785,108.29917046672378,104.44437339988436,111.39164002596058,80.49867120131424
2024-05-26 15:50:35,170.462632104227,109.10314930175602,105.43673739086245,113.54623770100781,82.28900617392328
2024-05-26 15:50:35,169.95424685075966,108.67799403389269,104.67367432086641,113.79149858764383,82.46431464021902
2024-05-26 15:50:35,169.62015413969525,108.27267466681771,103.98658668440635,113.47023283172258,82.72442617675613
2024-05-26 15:50:35,170.53288028999705,108.92117171159596,105.08785568479966,114.21848983838179,84.60732890271527
2024-05-26 15:50:35,172.6719927669024,110.86997046102393,107.81804847872155,116.49614022008348,88.2041661021387
2024-05-26 15:50:35,174.46247190850212,112.90026671573315,110.31004716964097,118.78036267290595,91.37802103718784
2024-05-26 15:50:35,174.37363786609592,113.7113552209264,110.86230091378391,119.47048120285089,92.36208956456007
2024-05-26 15:50:35,172.53991570267533,113.20554047894088,109.24637547290531,118.65322966100605,91.65058031798279
2024-05-26 15:50:35,169.66198025302924,111.40298298734132,106.40011691135697,116.53978434380751,89.7166817446365
2024-05-26 15:50:35,166.80016019334442,109.4662820352203,104.0287735683783,114.16344422543347,87.53994036144556
2024-05-26 15:50:35,165.52889020322505,109.45593338599532,103.71983300649194,113.59602727185762,87.30718835061838
2024-05-26 15:50:35,166.3217385341771,111.66966216985921,105.44788949429169,115.058699935087,89.54521250175765
2024-05-26 15:50:35,167.72806427120742,114.55561927766918,107.69708153978253,116.97621005310565,92.58109508277599
2024-05-26 15:50:35,168.70399728479646,117.44102510595015,109.99904288278323,118.83472553427121,95.70802601988518
2024-05-26 15:50:35,169.81930436185428,120.62532517180486,112.90027536684217,121.20330232451015,99.3743783062846
2024-05-26 15:50:35,170.932212762985,122.84271199485273,115.57312275455163,123.20676526865972,102.53300098436422
2024-05-26 15:50:35,170.6016052888299,122.6203314576392,116.58006076057582,123.25007800998628,103.4529808329919
2024-05-26 15:50:35,168.8606206830782,121.18146609015905,116.27737021383136,121.73190235220174,102.7340404730845
2024-05-26 15:50:35,167.27604683852513,120.39059346178641,115.88829715771871,120.30576827102519,102.07461450901783
2024-05-26 15:50:35,166.23966390285608,120.39215421313055,115.8051351147991,119.77581470464588,101.91107533767291
2024-05-26 15:50:35,165.8306805075834,121.19915984950367,116.47377656175135,120.6375572079834,102.92684669209841
2024-05-26 15:50:35,165.96697092742986,122.15745485662612,117.48434080436726,122.13693162685405,104.68163054946339
2024-05-26 15:50:35,165.14453156427527,121.72748574919306,117.10515284241502,121.93260869087514,104.7266420441142
2024-05-26 15:50:35,163.5595319702072,120.87191804645514,115.81252964684836,120.60335433491404,103.64000815207606
2024-05-26 15:50:35,163.39587895036544,121.8554375683592,116.28240226268605,120.91355906843313,104.47951275220369
2024-05-26 15:50:35,164.43638242680782,123.88444021941349,118.37858844480496,122.40904215129126,106.93643470303229
2024-05-26 15:50:35,164.01390250366816,124.08707842299731,118.8605714249687,122.18276157716676,107.6901372197369
2024-05-26 15:50:35,161.70451672945362,122.28165961098254,117.10774200587673,120.08133486773603,106.23013920171388
2024-05-26 15:50:35,159.5617828617566,120.40900469362677,115.2549151383187,118.23506015783505,105.08082233521922
2024-05-26 15:50:35,158.5341947130817,119.40849733418034,114.29527549707355,117.34242001290497,105.28801787498217
2024-05-26 15:50:35,159.1857296684833,120.53270787334736,115.07608680131074,118.11792026787346,107.74834627093095
2024-05-26 15:50:35,162.27114732904263,124.67707504970818,118.66018956191066,121.76166930920982,113.6283060969887
2024-05-26 15:50:35,166.7271201383311,130.09130707007125,123.79002938411764,127.16814670836015,120.81174966195518
2024-05-26 15:50:35,170.19785439669346,134.14942913105293,127.59060127050132,131.34947753520203,125.8250257295808
2024-05-26 15:50:35,172.01839024142623,136.4683125461458,129.1837113065591,133.4189338403348,128.32974690347604
2024-05-26 15:50:35,172.4491574996835,137.4418070259793,129.19289384381904,133.7804170334202,129.0684700305759
2024-05-26 15:50:35,170.42670489124413,136.12170764550882,127.03297663284809,131.3598875009818,127.001197521206
2024-05-26 15:50:35,165.81566669703378,132.60744562042834,122.68576888253496,126.29564176819194,122.32725223576594
2024-05-26 15:50:35,161.45088837771414,129.3667609040443,119.36787210618417,121.86470006471585,118.55627440505599
2024-05-26 15:50:35,159.72916774589925,128.25009239366022,119.23866603845124,120.58605137502948,118.19088670579129
2024-05-26 15:50:36,159.40670603098505,128.01546198485798,119.85975019909569,120.69094758148714,119.13352019297497
2024-05-26 15:50:36,159.31372930585258,127.68101801161762,119.96515373472569,120.69774275372748,119.75956856158837
2024-05-26 15:50:36,160.03948183146866,128.00269134222174,120.74429174310644,121.53058564600025,120.86023469581953
2024-05-26 15:50:36,161.371605418322,128.95597986531604,122.04145366238089,123.03329012452555,122.13092928670957
2024-05-26 15:50:36,162.5894166052502,130.03988282664446,123.08019576039682,124.444407103287,123.12043552865764
2024-05-26 15:50:36,163.08282151976158,130.62957122276583,123.46244305239406,125.30488286685588,123.93260452506631
2024-05-26 15:50:36,162.91201702230128,130.47941121736733,123.48650268999631,125.38015732966375,124.70317786180956
2024-05-26 15:50:36,162.5152910494939,129.76536540542926,123.14739014955254,124.70278202772364,125.34059904136049
2024-05-26 15:50:36,161.50505236773887,128.67717460716193,121.76181432359898,123.50093374189048,125.51829213375515
2024-05-26 15:50:36,159.73052701998353,127.77515897843719,119.89581046128994,122.45801974124495,125.4112205987618
2024-05-26 15:50:36,157.31275494611728,126.59810174328567,118.17311772644527,121.32961814998782,124.6653254984402
2024-05-26 15:50:36,153.31219441895178,123.38501275841756,115.28492907035421,118.37238938865086,121.6836557121713
2024-05-26 15:50:36,147.1116744383379,117.34076348912738,110.04293332535883,112.67894788905842,115.68843533283722
2024-05-26 15:50:36,140.33510533913113,110.44765459842486,103.84077928448804,106.15206838315926,108.80407242600741
2024-05-26 15:50:36,135.81319609550718,106.07287694168222,99.85298409961291,102.42430209645195,104.74853172099891
2024-05-26 15:50:36,135.45937768757253,105.76804577617963,99.98808225511141,103.462639604337,105.50005592213874
2024-05-26 15:50:36,138.423880185801,108.39397809899663,103.15371782356911,107.6495942796534,109.69243022173686
2024-05-26 15:50:36,141.9201993586967,111.58450584600686,106.9557460173825,112.00424069849403,114.37261922135501
2024-05-26 15:50:36,144.1248969033757,113.4015438519756,109.58069385938363,114.73508431837203,117.52344648760818
2024-05-26 15:50:36,143.87967259454442,112.8960359745333,109.21032782859115,114.594481109767,117.74565896889465
2024-05-26 15:50:36,140.85400289027976,110.07737088751506,105.44002263267498,111.53076125050042,114.62943648391102
2024-05-26 15:50:36,137.40265288909063,106.82931536065836,101.28389436756471,108.33859488465578,110.74141154474479
2024-05-26 15:50:36,136.09152004407386,105.56467924561886,99.53656459936992,107.57194827868423,109.30103270643218
2024-05-26 15:50:36,136.89493758957548,106.55948788529551,100.09206007535184,108.85093107272112,110.64174467703499
2024-05-26 15:50:36,137.97478194080912,107.79738458279982,101.02951762596328,109.99616598295512,112.35539637255164
2024-05-26 15:50:36,137.98279341954947,107.52546683589803,100.9539908023691,109.62150346423567,112.78492747673184
2024-05-26 15:50:36,137.29797030504437,106.45873889723914,100.2513929813464,108.45096186086103,112.69246260697854
2024-05-26 15:50:36,136.89862740081338,106.04786264923627,99.99849863117055,107.8463899641714,113.08658556294114
2024-05-26 15:50:36,138.09755566029827,107.41082068863749,101.58689696610817,109.22506546943649,114.9405738399864
2024-05-26 15:50:36,141.4291096736761,110.76921845736172,105.09224552238136,112.93567698641337,118.7509947000066
2024-05-26 15:50:36,144.65616984309673,113.97045083065194,108.12767753014045,116.46559720165465,122.69915606400001
2024-05-26 15:50:36,144.86108870824938,114.49479756371723,108.09883014529314,116.62863245427566,123.6611194068013
2024-05-26 15:50:36,141.72561088603874,112.20003235044278,105.06716397146583,113.4815409968135,120.85755991192029
2024-05-26 15:50:36,137.41834343371897,108.85091406050694,101.71440644550309,109.99019958610664,116.94478816418822
2024-05-26 15:50:36,134.46781715459292,106.62430353912204,100.42447041519397,108.46745435350942,114.86875915025523
2024-05-26 15:50:36,133.58344602533964,106.48858109909466,101.15847766156958,108.60772853371186,115.04262355028493
2024-05-26 15:50:36,134.30737427310038,108.02094027802461,103.07779625843021,109.6221826030032,116.95195171375002
2024-05-26 15:50:36,136.37626944411517,110.44023454371185,105.95524053411614,111.47593888397938,120.41035266275341
2024-05-26 15:50:36,138.59140593674672,112.49815361379494,108.67007255359721,113.08647507270516,123.63607872036242
2024-05-26 15:50:36,138.62878736013045,112.64743390091797,109.25800056149114,112.80966014795618,124.03660515813462
2024-05-26 15:50:36,136.27607811632373,111.36171173413575,107.96422988427182,111.16285818701857,121.97103257002647
2024-05-26 15:50:36,134.6713576342911,111.27492587121449,107.71789337373959,111.13837295918918,121.31672148672088
2024-05-26 15:50:36,134.90034542964312,112.46976657419977,109.23330705110469,113.09234723678146,123.16473475201084
2024-05-26 15:50:36,134.37197299488233,112.24476329051657,110.07374548319468,113.79096425053646,124.1009359365741
2024-05-26 15:50:36,131.90562200012582,109.86511643229068,109.28510822416047,112.36073718453163,122.90519834444441
2024-05-26 15:50:36,129.25027080356526,107.17049803089691,108.60259397385975,110.9281231319177,121.61534165003081
2024-05-26 15:50:36,128.47010930184558,106.36077815886037,109.96599927277049,111.48797461361,122.13646804783555
2024-05-26 15:50:36,129.9887910305957,108.41694540722068,113.43186259943374,114.61148931761916,125.03435657846855
2024-05-26 15:50:36,132.08034538829526,111.52518395268777,116.85976182792776,118.1872660888425,128.53001549303718
2024-05-26 15:50:36,132.62455420094975,113.0670075494037,118.22340081356283,119.36030124606378,130.10033419353405
2024-05-26 15:50:36,131.1908598912749,112.65798071546115,117.29676701058357,117.8905480775936,129.14779408109192
2024-05-26 15:50:36,129.1732360355082,111.95129728881672,115.40462056334428,116.06535202305277,127.54279656489011
2024-05-26 15:50:36,128.22574482866153,112.43517598339767,114.42341781752694,115.90781270029078,127.59894628439473
2024-05-26 15:50:36,128.76430142301555,113.71329629631065,115.20882109244589,117.38389364668724,129.72510607793095
2024-05-26 15:50:36,130.36123860841747,114.81427864829794,117.19638087697453,119.48584293363682,132.7934054976281
2024-05-26 15:50:36,132.21832639773206,115.31053341790934,118.82718669787941,121.30842472899849,135.26284872490692
2024-05-26 15:50:36,133.10180872430493,114.96787004281158,118.76595767559525,122.14867630264015,136.0401674466079
2024-05-26 15:50:36,132.46384862663137,114.07146209359748,117.54737012778425,122.1675818116424,135.2386088673439
2024-05-26 15:50:36,131.59375751595644,113.92093196275749,116.97632148668171,122.84890597719209,134.63460404304854
2024-05-26 15:50:36,132.02842080830675,115.57631407263287,118.19245467995823,124.97652001771249,136.17010262677022
2024-05-26 15:50:36,133.24860232920886,118.08363222024491,120.40869280114151,127.0935842664419,139.1291474446946
2024-05-26 15:50:36,133.47022950017055,118.98694928393851,121.30459203531504,127.06147379440353,140.61510456828353
2024-05-26 15:50:36,131.9360075601423,117.02496863482747,119.95640577718532,124.50840018710433,139.37918794986
2024-05-26 15:50:36,129.57449571670952,113.57864723747568,117.48088376021325,121.12377910496535,136.92499027803422
2024-05-26 15:50:36,128.4510571405741,111.3106005826122,115.81530504523418,119.26912215341387,135.59450387584045
2024-05-26 15:50:36,129.33799436204055,111.48024039677836,116.36282034747029,119.98634336438346,136.54194230941374
2024-05-26 15:50:36,130.29460991306237,112.52475493458886,117.67898310788277,121.68726463038833,138.3728371321737
2024-05-26 15:50:36,129.23204691445466,112.26079336304191,117.27090008807802,121.83840867465159,138.64241409132472
2024-05-26 15:50:36,127.02366011496856,111.43051964322623,115.8533375431348,120.83309170959811,137.62422125963744
2024-05-26 15:50:36,126.42440525384788,112.54027703085734,116.32817952638469,121.56199944349402,138.0972711067674
2024-05-26 15:50:36,127.78860249943499,115.44670470746021,118.88186830238229,124.11809538771054,140.29561098914374
2024-05-26 15:50:36,129.616427981647,118.2811105490054,121.27320296665589,126.32468382272147,142.23140689190726
2024-05-26 15:50:36,130.92194728419227,119.88772145594291,122.17997189393763,127.04489195383593,142.99506030696287
2024-05-26 15:50:36,130.77098748782973,119.36121400687993,121.00571714655148,125.61923524176706,141.80728773960905
2024-05-26 15:50:36,129.588780638212,117.51422735900815,118.79495720340776,123.09353373481453,139.60569267853958
2024-05-26 15:50:36,128.5664805841569,116.0794613968755,117.25813537837308,121.43642682524793,138.34073781048534
2024-05-26 15:50:36,127.4887080793908,115.05868696349812,115.67615917358256,120.17150574321562,137.2094463296723
2024-05-26 15:50:36,126.37034872120142,114.43595981668983,113.8198709928651,118.95020362154042,135.67802469806017
2024-05-26 15:50:36,126.60187647211414,115.12627815704136,113.56860575392064,119.30378936446348,135.61113941724426
2024-05-26 15:50:36,129.2821267472334,117.85405121160623,116.08979557813987,122.1231256428297,138.4681521728519
2024-05-26 15:50:36,133.2277478812533,121.75715601345225,120.18509752392973,126.14012014223147,142.9687390386773
2024-05-26 15:50:36,136.07119829593756,124.73691620236947,123.35048260297967,128.90012039630307,146.6027525928195
2024-05-26 15:50:36,136.94610252157247,125.77249497304895,124.34930360301844,129.26149899210745,148.06841819913745
2024-05-26 15:50:36,135.79321141943228,124.73307081085068,123.04223542532831,127.31622753927873,146.54879856216715
2024-05-26 15:50:36,133.1303766554965,122.24883385828842,120.30184552574794,124.24889106358742,142.7653567108606
2024-05-26 15:50:36,130.69797991768206,119.65545434698531,118.21915069315494,121.98502056550029,139.13684703017393
2024-05-26 15:50:36,129.194804232921,117.69315244482577,117.22544227949537,120.76731768775544,136.60720719517033
2024-05-26 15:50:36,128.57494070377138,117.12706744665736,116.8563896785904,120.57364759560514,135.2333876028014
2024-05-26 15:50:36,129.5274084188212,118.89945058498331,117.7872511284053,122.35422818167196,136.16671893707917
2024-05-26 15:50:36,131.4645741933844,122.06528664117744,119.34228115335743,125.12638694279167,139.20462865282073
2024-05-26 15:50:36,131.86137501025053,123.45993330552784,118.94397628538387,125.607875612101,140.65437880338843
2024-05-26 15:50:36,129.2994431593196,121.27216229336116,115.67236230047773,122.41283479291822,137.78385872516995
2024-05-26 15:50:36,126.56625374151275,118.46763936676359,113.04706651841302,119.39768374847216,134.0724011765045
2024-05-26 15:50:36,126.1877944219661,117.99555426511698,113.93688107923124,119.75688905133401,133.33646550691844
2024-05-26 15:50:36,126.74908131512831,118.86794768225057,116.23168610713233,121.60551606236979,134.04537404074927
2024-05-26 15:50:36,127.52302058153852,120.52428105606276,118.01082288458137,123.75830459981844,134.8931553821978
2024-05-26 15:50:36,128.75531620874358,122.85442849784096,119.4027589982345,126.2865147972751,136.14829184894566
2024-05-26 15:50:36,129.33020845281996,123.91811064128424,120.23981578781556,127.52072108517544,136.56077718604058
2024-05-26 15:50:36,128.51474436183003,122.8488675602335,120.09242210984951,126.46530564214785,135.1781988272875
2024-05-26 15:50:36,127.83984546005786,121.91993517098604,119.9985994655293,125.15735098693702,133.99421796149252
2024-05-26 15:50:36,129.51050051549777,123.8786639478473,122.37209606963289,126.91580677397528,135.95056924964535
2024-05-26 15:50:36,133.36357099060675,128.80493374562016,127.45120040735893,132.27242921435987,140.86783924757557
2024-05-26 15:50:36,137.43815885713053,134.48038118638522,132.9728008635979,138.43471225603852,146.1869731655338
2024-05-26 15:50:36,140.01280433686287,138.50770583219384,136.6848667183234,142.57392740442106,149.44711915078878
2024-05-26 15:50:36,140.87529421172775,140.3926437504402,138.08669726015532,144.2029220564572,150.11685868799532
2024-05-26 15:50:36,142.38780509314157,142.6535314986306,139.98149154024415,146.31757244591222,151.53129933517687
2024-05-26 15:50:36,146.52313467827926,147.51657711989913,145.05631002496474,151.7752438293055,156.79234453910877
2024-05-26 15:50:36,150.92150312276988,152.76573476601877,150.53629519231305,157.92029855421376,162.76309015242865
2024-05-26 15:50:36,151.0538250320884,154.03250427307452,150.8906695609195,159.34423829312985,163.36730733390044
2024-05-26 15:50:36,144.09373637801284,148.3998519945389,143.5801396266311,152.6871006415222,155.27295144715106
2024-05-26 15:50:36,130.63422281556885,136.0879889334787,130.327469299985,138.63909359997226,139.31077223519014
2024-05-26 15:50:36,115.44182576243352,122.12956058603586,116.5448595503343,123.09650898130971,121.63407033853343
2024-05-26 15:50:36,105.04961841341353,113.6026901886722,109.10541687008278,114.26830851818482,111.00338565027832
2024-05-26 15:50:36,102.00397700685025,112.95579498985036,110.27341903246848,115.03136034487653,110.54681541599889
2024-05-26 15:50:36,103.31284535341673,116.87973551831737,115.6758722493609,120.61338381818842,115.56422377389961
2024-05-26 15:50:36,105.28537312360812,121.60555156466543,121.02469422255928,126.24557535327267,121.08587815593685
2024-05-26 15:50:36,105.81936412642875,124.75717306798121,124.90324724605777,130.17579426637192,124.98718809246094
2024-05-26 15:50:36,102.31891361416652,123.75731178399366,124.85000920961352,129.89182900323902,124.28215532817387
2024-05-26 15:50:36,93.87761223871499,118.39860671379438,119.8727513580837,124.67289444588211,117.68542355194167
2024-05-26 15:50:36,85.23554079277207,113.78880183427168,115.17244952415821,120.14334770796208,111.14868391924132
2024-05-26 15:50:36,81.41475204816369,114.49398386696097,116.03917378083857,121.59151909352514,111.13234435268356
2024-05-26 15:50:36,81.50991747892598,118.9715506442025,121.07623149010391,127.01412279118912,116.22916957011083
2024-05-26 15:50:36,82.28715042724805,123.7453871431723,125.93405619188424,132.1503969129073,121.90221278958148
2024-05-26 15:50:36,81.72537071337732,127.1016226038312,127.87164242647346,134.90895796540886,125.45209686554432
2024-05-26 15:50:36,79.04939921976109,128.42524310979127,126.81872623019122,135.05186252645893,125.88481298734995
2024-05-26 15:50:36,75.22949910654224,128.0342403048072,124.79916942371376,133.9569629738069,124.4184828888428
2024-05-26 15:50:36,70.37673003622956,125.6512149464299,121.91744729990396,131.62959637169018,121.44775691311146
2024-05-26 15:50:36,64.38762181639282,121.64750498811648,117.89414127505424,127.73611720393,116.72774065542099
2024-05-26 15:50:36,60.11916564643773,119.3404722184899,115.7239861045528,125.19759672996909,113.45272762253491
2024-05-26 15:50:36,59.627839218292,120.77050731315178,117.34780160312533,126.47204280071244,114.242428147195
2024-05-26 15:50:36,61.25281070866153,124.28137346843215,121.13020345255903,130.07423935763265,117.3493133867949
2024-05-26 15:50:36,62.4993234510643,127.38186121509199,124.37572651384009,132.86464960229966,119.81875439801776
2024-05-26 15:50:36,62.288443453512,128.76172921925678,125.4806321534832,133.16590625824912,120.17088297965384
2024-05-26 15:50:36,61.4290263654054,128.95232483464437,125.44063187476638,132.11080923796203,119.37651598446378
2024-05-26 15:50:36,61.294712813956025,128.8441404983956,125.92132199002802,131.42572972173963,119.0974603953972
2024-05-26 15:50:36,61.18577913513046,127.66109541978074,125.86162321543509,130.3347650447639,118.22441727900464
2024-05-26 15:50:36,60.54355011466724,125.3310537382645,124.18943360064837,128.2764372452455,115.68922470351652
2024-05-26 15:50:36,60.841480469943605,123.78570185530529,122.47488595708454,126.9179222774132,113.68777322491772
2024-05-26 15:50:36,62.939561011955206,124.04374316784973,122.0520764663759,126.98395344594337,113.79063970556707
2024-05-26 15:50:36,66.47921001712741,125.39448579013104,122.81579870760606,127.84752849735166,115.02952263768724
2024-05-26 15:50:36,71.02966285150984,126.69856657732862,124.29466364093668,129.0909195989773,116.39494097500258
2024-05-26 15:50:36,75.81625532328067,126.92026843439987,125.20284962047121,129.772549902557,116.81026152757532
2024-05-26 15:50:36,79.99766816691483,125.84169282269758,124.4424812537446,128.99913792959765,115.46153569971952
2024-05-26 15:50:36,84.5431852791008,124.77133419184612,123.14265046650124,128.13709680266828,113.68781565496278
2024-05-26 15:50:36,90.97076952717929,125.35492786000069,123.1483326826818,129.1641710617939,113.54076521750093
2024-05-26 15:50:36,98.82391788427954,127.81183388382956,124.61344196645025,132.03041944338185,115.54471882379951
2024-05-26 15:50:36,106.47237546507306,130.8371631290361,126.2425462803225,135.27066700608927,118.33606563388463
2024-05-26 15:50:36,113.17723730745071,133.31791070933454,127.88526237122919,137.75073881007935,120.76338501463462
2024-05-26 15:50:36,118.92321993441485,134.95166775252738,129.94132808713385,139.1867775683937,122.83173287581087
2024-05-26 15:50:36,123.19971172935244,135.42375719441236,131.2493725344566,139.34721647472543,124.02445338908714
2024-05-26 15:50:36,125.70421597199638,134.73731015403865,131.00169931690624,138.12481857909725,123.52318847402513
2024-05-26 15:50:36,126.93945109439065,133.278900386319,129.5379113988609,136.01384433864908,121.34174346393407
2024-05-26 15:50:36,128.23506404506892,131.89781226250662,127.99295673016603,134.34186319937857,119.28537277703337
2024-05-26 15:50:36,130.80150638652648,131.50945661627014,127.73593620000545,134.4216680707504,119.37906367653115
2024-05-26 15:50:36,134.52050505546447,131.9741666542397,128.54212174577248,135.89843862315308,121.03204399428128
2024-05-26 15:50:36,139.02800346068463,133.05447277336165,129.81200068694693,137.87765488355183,122.90901865354851
2024-05-26 15:50:36,144.1003857260748,134.88713424146476,131.87959980975825,140.13990317714186,124.94179432196727
2024-05-26 15:50:36,148.27851436075662,136.03197152152097,133.4449576550516,141.38806834994392,125.7225150496266
2024-05-26 15:50:36,149.7799430352582,134.56161123886213,132.3993878110494,140.1569130324599,123.16395887368608
2024-05-26 15:50:36,148.6883232952141,131.0572202288964,129.08556022391392,137.10845976948465,117.9489951903771
2024-05-26 15:50:36,146.87937849988944,127.62266454612329,125.36581890597037,134.10514004038004,112.7909196698673
2024-05-26 15:50:36,146.7460710549024,126.26120499459036,123.21165601861033,133.14087898111703,110.51801924253428
2024-05-26 15:50:36,148.6184515012398,126.93060963566832,122.92749404580375,134.00154397131388,110.92404145986983
2024-05-26 15:50:36,150.39990241171643,127.20418658617292,122.71525201810523,134.06542524465337,110.76960132844047
2024-05-26 15:50:36,151.38668909947424,126.0783520906872,122.22162308779879,132.7106501749362,109.25041708036848
2024-05-26 15:50:36,152.62257646223003,124.49612573579216,122.64316756793725,131.2803448520569,108.37034156572383
2024-05-26 15:50:36,153.9348093326984,122.97634511357799,123.54993110327842,130.15135344144548,108.4219135256583
2024-05-26 15:50:36,154.44691268736375,121.34887080552684,123.3468899895366,128.7716230289336,107.85704471141801
2024-05-26 15:50:36,154.61103113709692,119.81700370967674,122.15818827798242,127.14904322713348,106.69287151225063
2024-05-26 15:50:36,155.31353265103994,119.10719255474834,121.46991787803982,126.18226183895644,106.36640554806557
2024-05-26 15:50:36,156.7140494106922,119.28840146050734,121.53761399419595,126.17804722297731,106.96198543832124
2024-05-26 15:50:36,158.1271556348605,119.45683420491527,121.48501999678007,125.96466525533387,107.02490732626592
2024-05-26 15:50:36,158.94934718847492,119.15443753992204,121.15029383187802,124.8485374917153,106.0773794145178
2024-05-26 15:50:36,159.66273825664246,118.82108161205834,121.16761459806287,123.77778119774997,105.19486009348557
2024-05-26 15:50:36,160.60334004793614,118.72421971011535,121.43025103973419,123.25853403447464,104.93401800016865
2024-05-26 15:50:36,160.3184954348001,117.6180237191167,120.21593794053936,121.64595245729268,103.58265122344346
2024-05-26 15:50:36,157.54290689086946,114.17449924569561,116.82425776550886,117.8085027188898,99.6385838928322
2024-05-26 15:50:36,154.3104284803316,110.12186303179456,113.74797492443507,114.1641603317426,95.24318898302884
2024-05-26 15:50:36,153.3452704977555,108.50224844283927,113.35093361484763,113.54315362323257,93.66302634673288
2024-05-26 15:50:36,154.55861691839604,109.384776765031,114.92642322911719,115.55877606944225,95.02776816602234
2024-05-26 15:50:36,156.38290887754255,110.74320018349282,116.67193226947686,117.88201470894501,96.73773797611871
2024-05-26 15:50:36,157.89001824075032,111.73440407409448,117.85199390455315,119.12432906513449,97.47146227992549
2024-05-26 15:50:36,158.97623057516122,112.46054166058083,118.31507550344558,119.68162674710453,97.84762530217645
2024-05-26 15:50:36,160.2789445565206,113.34427543477618,118.83010691190856,120.9083821729366,98.79165505073078
2024-05-26 15:50:36,162.6058105332393,115.02839205476764,120.6323031046152,123.65317373969783,101.11417535048179
2024-05-26 15:50:36,164.06942695178049,116.33291965199322,121.63230597978949,125.43147359389948,102.60875121489944
2024-05-26 15:50:36,162.30667803082227,115.26387237485358,119.31135448774361,123.34229147947795,100.40970015197257
2024-05-26 15:50:36,159.71738646058267,112.98837014201463,116.68910469240419,120.04622233388736,97.22612309809222
2024-05-26 15:50:36,159.06168194622407,111.64923869759446,117.02521665269211,118.90007622595742,96.19765912338673
2024-05-26 15:50:36,159.9191101959051,111.59615727162043,119.48381982219584,119.56371321425031,96.6882729009758
2024-05-26 15:50:36,162.13355078685004,113.03141591333491,122.77224777961813,121.9886552217254,98.57546105293248
2024-05-26 15:50:36,165.1301289869577,115.31571648666053,125.66097789308282,125.7497654459452,101.39129096062564
2024-05-26 15:50:36,166.800966581983,116.76407748994617,126.52959824882835,128.3482241425719,103.1908996844311
2024-05-26 15:50:36,166.4805565905846,116.94509346560842,125.36756650530641,128.58250148692505,103.52776901633271
2024-05-26 15:50:36,165.55318567663556,116.95106637062364,123.67439501880217,127.69385130935629,103.41709133503906
2024-05-26 15:50:36,165.29742225385695,117.72038563126291,122.97535936237315,127.26168709188295,103.86022350094159
2024-05-26 15:50:36,165.5528279372123,118.85289037952715,123.45055452090948,127.28435698734242,104.71878338498937
2024-05-26 15:50:36,165.8948587675295,119.99002187510726,124.45964381326814,127.40894007056579,105.78376829831602
2024-05-26 15:50:36,166.8597430712417,121.701601636844,125.88573103895958,128.35015234348768,107.61126676617427
2024-05-26 15:50:36,168.50422421165848,123.74210185384271,127.46733717989528,130.1049245304655,109.84709316679918
2024-05-26 15:50:36,170.53164088351372,125.665524554267,129.09128654202354,131.9759170385419,112.31645020542837
2024-05-26 15:50:36,172.40726445505794,127.16264179302806,130.27927978608886,132.90515720855902,114.42424124261645
2024-05-26 15:50:36,171.89640916070553,126.01759911565696,128.63961083959623,130.4972434461667,113.1469884600231
2024-05-26 15:50:36,168.03010484484756,121.24564593524705,123.33712652836441,124.22604812998064,107.62860753404378
2024-05-26 15:50:36,162.68086255238111,115.07175833910782,116.85755971491493,116.85742416786731,100.97904743944916
2024-05-26 15:50:36,158.2324137432057,110.10186977139071,112.05606307159461,111.63629643734487,96.24214676787092
2024-05-26 15:50:36,157.7270392100578,109.11029291666051,111.89861746578306,111.70598202903561,96.68750017573201
2024-05-26 15:50:36,162.4465553466195,113.09924077102713,116.95845923292164,117.44402761268316,103.43731808267049
2024-05-26 15:50:36,169.05352812336307,118.94095188804593,123.41816882477792,124.47792224399358,111.98988403264559
2024-05-26 15:50:36,172.9926553678456,122.26928516025957,127.14905541577109,127.79270431719449,116.903214428569
2024-05-26 15:50:36,173.18321329703363,122.1267740837255,127.43437869608704,126.77995956340854,117.17017384565989
2024-05-26 15:50:36,172.08245745175938,120.74402215012465,126.72413789627413,124.72734615308863,115.94555105799046
2024-05-26 15:50:36,171.11826707587417,118.9440107911546,126.18816872823176,122.95582606350605,114.94608321746914
2024-05-26 15:50:36,169.27074979024437,116.1660754632722,124.32007046008829,120.34388455525811,112.79587550758671
2024-05-26 15:50:36,167.66912083069758,114.33669933150216,122.37916866167934,118.60793603129278,110.85748857369745
2024-05-26 15:50:36,168.5459603198387,115.29043102176455,122.97024460712335,119.91877871747438,111.86213132111845
2024-05-26 15:50:36,170.57723461613998,116.87640311792639,124.33368481667709,122.07892774497262,113.82502867298696
2024-05-26 15:50:36,171.70128927291512,117.14828477122983,124.37886047571237,122.68570023556077,114.08215063645554
2024-05-26 15:50:36,171.62526827895942,116.68475881942044,123.76839996611785,121.94017386019739,113.13308735091267
2024-05-26 15:50:36,170.8196742959679,116.23260584312654,123.08260373620641,120.54168687840583,111.94328891316678
2024-05-26 15:50:36,169.89382539488034,116.23623419684125,122.4409358320772,119.00651836256523,110.94026650107752
2024-05-26 15:50:36,169.06776382809358,116.7739852628872,122.10095800868406,117.60330702687162,110.19956838994041
2024-05-26 15:50:36,168.88743076440662,117.87783344135411,122.58675646021726,116.91037442866273,110.01967307503847
2024-05-26 15:50:36,169.69915875841681,119.44005881597423,124.15826252720345,117.2877010190692,110.52349459093406
2024-05-26 15:50:36,170.8185875595181,120.83341150470679,126.07088632159561,118.08412611957179,111.35593640726314
2024-05-26 15:50:36,172.47224490337726,122.3976841228051,128.26167436110984,119.52410876201529,112.99443227868677
2024-05-26 15:50:36,174.5882701734621,124.40328357433971,130.5588678227501,121.53232623824374,114.91885374276029
2024-05-26 15:50:36,175.00868370998404,125.13972898589125,131.03265807610794,121.81288028606225,114.93484379240513
2024-05-26 15:50:36,173.72418341430588,124.43904152865085,129.99630271014144,120.40098075969279,113.67756653775217
2024-05-26 15:50:36,173.19616643847814,124.50921855281952,129.9742001966331,119.94263933858659,113.71232368252896
2024-05-26 15:50:36,173.79128275199005,125.57169258554933,131.00211927663108,120.76195861503933,114.73944629088615
2024-05-26 15:50:36,174.13488332914346,126.01701072687615,131.56138935077018,121.46775169937618,114.88824188504013
2024-05-26 15:50:36,172.45943287758547,124.31548226311668,129.6354019843934,120.03523589361033,111.94752820677171
2024-05-26 15:50:36,168.01284254019112,120.16312197441485,124.60011677427015,115.66332639772797,105.57332721971939
2024-05-26 15:50:36,163.33123889509517,115.89028224734757,119.76580590353332,111.25054008296352,99.33865233473644
2024-05-26 15:50:36,160.97282721471916,113.8035636409148,117.72000397140685,109.42655787790372,95.96171526692066
2024-05-26 15:50:36,160.82091331372675,113.84979926353358,118.03902288803876,109.77744615235575,95.48115853882992
2024-05-26 15:50:36,162.28816990351294,115.64738162952389,120.0265716020153,111.44822937621143,97.54604807173081
2024-05-26 15:50:36,164.87930169937758,119.07598423674082,123.1825992693929,114.24445409354976,101.38296206987768
2024-05-26 15:50:36,166.71059566020344,121.82912610134849,125.71514441048791,116.5251831473439,104.33532901483318
2024-05-26 15:50:36,166.030923542971,121.46199050490843,125.56580843562432,116.2923453713325,104.09024755871633
2024-05-26 15:50:36,163.9044569380742,119.31864813863396,123.68497137842944,114.3513995126687,101.9603018784388
2024-05-26 15:50:36,163.1425551864024,118.34913324167817,122.90539383417862,113.53516448690657,100.9483498218013
2024-05-26 15:50:36,165.2947284669584,119.92168809900609,124.5377869686782,115.77132311307938,102.63910362151154
2024-05-26 15:50:36,169.03909579556915,123.11037096893345,127.59219283412685,119.9901145709424,106.00939858030239
2024-05-26 15:50:36,171.39696478802102,125.55898769303819,129.59887755258606,123.04770847341923,108.36301296432185
2024-05-26 15:50:36,170.54840681543396,125.47780363143565,128.71205827690403,122.58185008981586,107.69466280171216
2024-05-26 15:50:36,167.51283092098424,123.15529805770575,125.73500850351535,119.28175395043242,104.49550407995095
2024-05-26 15:50:36,165.003973830206,121.0390928620684,123.50296274250127,116.59428298777739,101.88044908187504
2024-05-26 15:50:37,164.70509531290168,120.73937435287556,123.5449514610196,116.6646691673379,102.16477786125628
2024-05-26 15:50:37,165.62636397398956,121.28535878921286,124.64598213592132,118.03535035877998,103.92758180694389
2024-05-26 15:50:37,166.03621413994134,121.63184007320842,125.46805112080106,118.8662482601104,105.05896728348482
2024-05-26 15:50:37,166.32742602615963,122.36507495754446,126.13375814097819,119.55810275299356,106.02018636042396
2024-05-26 15:50:37,168.05653293975632,124.4152121638096,127.88226726958926,121.64918347541744,108.48726990734441
2024-05-26 15:50:37,171.32374513397934,127.38350591907528,131.56604628095118,125.23846822699304,112.5597769812066
2024-05-26 15:50:37,174.81592369309283,130.41777898095808,136.05018954864633,128.81588752076576,116.89335367169686
2024-05-26 15:50:37,178.22662554732577,133.69545970911622,140.31998449009026,132.1805501802131,121.26414325781701
2024-05-26 15:50:37,182.1047314242642,137.86760002062957,145.06693493692546,136.3330154912583,126.34699934496282
2024-05-26 15:50:37,186.44845256271432,143.07086550624078,150.50637720195976,141.1103084562333,132.35596944393322
2024-05-26 15:50:37,188.85525843514344,146.61819909158163,153.51054881600507,143.39797978894825,136.3269200258093
2024-05-26 15:50:37,185.40496997493867,144.1127586883948,149.49619845719178,139.06805614444403,133.1069608232935
2024-05-26 15:50:37,176.45860579683082,135.64054508214076,138.82270057697414,128.5506473367044,122.7015517990797
2024-05-26 15:50:37,166.06998687943067,125.36134637460644,126.4518355862991,116.64696385492384,110.0430328919391
2024-05-26 15:50:37,157.44961245256837,116.82915210890764,116.56365614330586,107.4255130445512,99.64504731317552
2024-05-26 15:50:37,153.54156435489074,113.01658384587981,112.29873884256254,103.69177005993885,95.1537418083038
2024-05-26 15:50:37,156.91246892950466,116.25750365887066,116.0245892986117,107.84470913587846,99.13707591588341
2024-05-26 15:50:37,165.08217825677804,123.9082571264439,124.85451963038958,116.8536751639854,108.70423613613087
2024-05-26 15:50:37,171.13443962966102,129.24891954492836,131.43215474369796,122.77334615192285,116.06323590134801
2024-05-26 15:50:37,171.99013925058034,129.40477869815288,132.30072165692732,122.2114145009301,117.23886599161233
2024-05-26 15:50:37,169.71335564538293,126.66912690077143,129.72503885448512,118.22548927989536,114.34425715458079
2024-05-26 15:50:37,166.1520262283868,123.48313045336047,126.42746773767949,114.06313675844035,110.22281301342937
2024-05-26 15:50:37,162.12849479189376,120.3479490490447,123.64542431779537,110.71422921780172,106.288351867135
2024-05-26 15:50:37,158.2691057915524,117.40575583021932,121.53944909872877,108.24185404628116,102.84472086078858
2024-05-26 15:50:37,154.8116409848388,115.18560993389593,119.65908286895322,106.59030652722275,99.67594763737495
2024-05-26 15:50:37,152.5036330010886,113.93267839070181,118.51650952500341,106.05862963805761,97.50796803377006
2024-05-26 15:50:37,152.9983822200209,114.57199706080513,119.74216570036145,107.83164367929561,98.45338699104978
2024-05-26 15:50:37,156.19827249700973,117.57102927439523,123.30325066754084,111.99304791870993,102.5703565113386
2024-05-26 15:50:37,158.95910835629573,120.79863459962812,126.23596140617002,115.74359033462649,106.08601313419456
2024-05-26 15:50:37,159.80768683297336,122.85082430037191,127.12146700071673,117.63770823368657,107.13901180255519
2024-05-26 15:50:37,160.7768378447771,125.1511810947942,127.99477537160061,119.55379067275288,108.21758845642916
2024-05-26 15:50:37,161.6333220929202,126.99426962970423,128.6367735755884,120.94010591818096,109.32965059819634
2024-05-26 15:50:37,160.3414910223904,126.35963818964842,127.42536670761677,119.66544711760655,108.23688182442962
2024-05-26 15:50:37,158.46758503091004,124.95687548719206,126.41586716252384,117.90257860543973,106.70608842187573
2024-05-26 15:50:37,158.32847149951778,124.6768031771393,127.39764206391229,118.06173864380621,107.03406670442284
2024-05-26 15:50:37,159.1342072317358,124.93816582445545,129.0115507529319,118.91952049807347,108.04969574880278
2024-05-26 15:50:37,159.01549542210074,124.80638761927793,129.4553811402597,119.05623186793213,107.98077279102415
2024-05-26 15:50:37,157.53717367398875,123.79249800531707,128.0401439183272,118.2088244217482,106.31507746923106
2024-05-26 15:50:37,155.44543947205608,122.42434404279956,125.73645650480722,116.86995587009099,103.56484024034182
2024-05-26 15:50:37,153.55391999723602,121.43819652956206,124.10951260926656,115.99099332486263,101.17021300065744
2024-05-26 15:50:37,153.18027706127447,121.72695141649692,124.6017183960441,117.08567651811313,101.25707133196286
2024-05-26 15:50:37,155.28994641037798,124.44261649265393,128.0497679692658,121.24123903814882,105.02971813338922
2024-05-26 15:50:37,158.48759842124375,128.54991845207184,132.6355228763594,126.37116172626901,110.55938023188607
2024-05-26 15:50:37,160.55159694440053,131.34953481391614,135.43746664967193,129.19685268690878,114.74143404215322
2024-05-26 15:50:37,160.18694947644872,131.21094818361863,135.41289890168608,128.4893879321776,115.79185115911896
2024-05-26 15:50:37,157.5907958186307,128.90693497828266,133.54291658848584,125.44461274810064,113.8589166582404
2024-05-26 15:50:37,154.75589864235286,126.75075721622369,131.94378616213527,122.80676859915398,111.43123312399004
2024-05-26 15:50:37,154.11597177855703,126.53086106998643,132.35167850889434,122.94861638071971,111.15654768023637
2024-05-26 15:50:37,155.85950305438374,127.8593223547888,134.2463368235938,125.57332059880166,112.75698519635377
2024-05-26 15:50:37,157.4994390418169,128.78756179428473,135.37998282895435,127.7739759565963,113.70185061550269
2024-05-26 15:50:37,157.45440301585109,128.29356887826958,134.41248868910372,127.78601170301509,112.59798407343705
2024-05-26 15:50:37,156.1231789281536,126.79557786860677,132.38151220636928,126.68664043336946,110.21331567829077
2024-05-26 15:50:37,154.99558060868466,126.029252946345,131.86418557137134,126.8169957012523,108.70328208003754
2024-05-26 15:50:37,155.6948896254058,127.72997896299293,134.07496091859258,129.7377140931464,109.84803157022236
2024-05-26 15:50:37,157.32143542974407,130.59893431645403,136.83788753369848,133.75975825872175,112.42658199369575
2024-05-26 15:50:37,157.48296469553952,131.77318411426603,137.259206661931,135.24465321962424,113.34696109584279
2024-05-26 15:50:37,155.7728546999268,130.73172450899392,135.07349163249557,133.30686551328517,111.6089192096722
2024-05-26 15:50:37,153.69907121303865,128.825301425217,131.9327179563206,130.2160245119013,108.93797743644397
2024-05-26 15:50:37,152.1223985704908,127.06755624304168,129.23763480518508,127.7684529151319,107.05852322277715
2024-05-26 15:50:37,151.16077339010553,126.1936883272945,127.54441511853888,126.48902030312897,106.58339457451626
2024-05-26 15:50:37,152.35093814526883,127.64932162428724,128.17438038400513,127.83889799769119,108.91606385529457
2024-05-26 15:50:37,156.1751018853028,131.3274439693063,131.32633717205667,131.8428727227547,114.1219778640327
2024-05-26 15:50:37,159.7859407896442,134.40617848905788,134.07758388635426,135.11130959077323,118.35767586045726
2024-05-26 15:50:37,161.44908331117446,135.85091505451283,135.05437233481624,136.32824911366606,119.87230743048067
2024-05-26 15:50:37,161.62944373568354,136.47946294355336,135.06791520399423,136.4289746193669,120.17330004940018
2024-05-26 15:50:37,159.6038149769647,135.14143372689045,133.23830718725034,134.17274751069,118.3666404666381
2024-05-26 15:50:37,154.84913075419834,131.04298844026874,128.87396036553451,128.95599887883841,113.6297149378851
2024-05-26 15:50:37,149.48845254600604,126.32911197320026,123.66614381718337,123.22862858478554,108.25585037375947
2024-05-26 15:50:37,145.64250109553961,123.14551406691176,119.53940079992267,119.24102247479895,104.48499059133103
2024-05-26 15:50:37,142.35151288666896,120.64054057939394,116.56123981467748,116.38983949405173,101.75158684153922
2024-05-26 15:50:37,138.55825812709833,117.728545772352,114.12083467241852,113.66397899159192,98.77126957087835
2024-05-26 15:50:37,136.71049225651262,116.74460495747803,113.63468645262927,113.02147099898795,97.67029416553773
2024-05-26 15:50:37,138.69880280489434,119.24864078323199,116.2245583691668,115.70977856494859,100.46114380223722
2024-05-26 15:50:37,142.37636865904838,122.86957528578651,120.18197358399281,119.12603083941531,105.01560323369543
2024-05-26 15:50:37,144.823234691021,124.7825645289655,122.91307903999797,120.5164869872737,108.11782990494005
2024-05-26 15:50:37,144.8823247440035,124.18919574623915,122.93304328321969,119.22564680820838,108.05769191517588
2024-05-26 15:50:37,142.955939647587,122.1484391325186,120.85100849151138,116.05759487853864,105.43130589298104
2024-05-26 15:50:37,139.7743278772403,119.40908624529176,117.80579504771829,111.93766489497935,101.4759140992761
2024-05-26 15:50:37,135.91681459706135,116.24895255947152,114.49949462832268,107.91892066350928,96.84567394975218
2024-05-26 15:50:37,133.2074173950436,114.34663362517985,112.67215131248676,106.12983266988778,93.6792420500899
2024-05-26 15:50:37,133.56045999386146,115.10613596495789,113.88554645063465,107.78987112887008,94.23323750825367
2024-05-26 15:50:37,136.57252302137337,118.11406557034502,117.66794168535374,112.06782394496568,98.06523502322916
2024-05-26 15:50:37,140.2203503777711,121.967014824449,122.04723448044673,116.96654645682362,103.1514478138558
2024-05-26 15:50:37,142.42748872197933,124.7485118604345,124.76495487974674,119.89446388645086,107.09123016563827
2024-05-26 15:50:37,141.70898755166607,124.74173315344491,124.41800221841417,119.0279215314927,107.36410448843219
2024-05-26 15:50:37,138.0798230888599,122.04110693367535,121.20029246771075,115.01085993617394,103.67448941948595
2024-05-26 15:50:37,133.80587696743066,119.0482565321657,117.33702166318096,110.87999530665732,98.96306490376526
2024-05-26 15:50:37,131.09774907536791,117.52618264433886,115.18832242697376,108.83716029981565,96.03325806970703
2024-05-26 15:50:37,129.92763466308597,117.00649153133348,114.60900951894665,108.19530813415662,94.69672119750108
2024-05-26 15:50:37,130.14804326119216,117.51344778537403,115.04006848268422,108.49853989587224,94.59409059317852
2024-05-26 15:50:37,132.48541174715285,120.08775881504924,117.07489698441583,110.94960679167713,97.04361299057453
2024-05-26 15:50:37,135.65411473229628,123.56628393952205,119.72945525159994,114.59513432197468,100.82605443442432
2024-05-26 15:50:37,136.8859770757351,124.93233342231923,120.84957372248469,116.41366593463844,102.44398405053661
2024-05-26 15:50:37,136.74304113408948,124.83327379842785,121.17712441478217,116.85605322005206,102.568432385287
2024-05-26 15:50:37,137.63044479871988,126.17708609248635,123.05250330343046,118.70088611827083,104.50680625151024
2024-05-26 15:50:37,138.7915102166961,127.73020888869988,125.12713520644189,120.76087526726883,106.99526349552885
2024-05-26 15:50:37,138.8405131008547,127.7961883870502,125.54459686879085,121.02496438717296,107.83530487486176
2024-05-26 15:50:37,138.3178454054118,127.39052273157832,125.33459284109539,120.36389672764318,107.76695387887722
2024-05-26 15:50:37,137.97697363259576,127.22715148176715,125.2818046028333,119.78601743216208,107.60807757090309
2024-05-26 15:50:37,138.26373898737555,127.74317991377026,125.79104475866674,120.13283071732845,108.52009595167658
2024-05-26 15:50:37,138.6031512021815,128.57875012702388,126.58851050232333,121.12492048823083,110.22239891450725
2024-05-26 15:50:37,137.71775447522657,128.3362700229706,126.41989615386257,121.21117901125174,110.5939279014913
2024-05-26 15:50:37,134.73338106175953,125.97873127875599,124.4072780802405,119.29759598933998,108.33289685037381
2024-05-26 15:50:37,129.46512165263863,121.4017961615478,120.06975272334033,115.15099234352535,102.82538436822358
2024-05-26 15:50:37,123.9309884555833,116.73407810284674,114.98919422929652,110.87921057288351,96.3288526914967
2024-05-26 15:50:37,121.3671291176916,115.22277997454677,112.46036976066776,109.62402307377371,93.5620601211929
2024-05-26 15:50:37,122.97921779717929,117.8613665184594,113.95830735789315,112.18879710031149,96.39767227038439
2024-05-26 15:50:37,126.97937635989297,122.42860512171151,117.63314836310974,116.55078098334322,102.27497581005903
2024-05-26 15:50:37,130.46343641109868,126.16678157147486,120.5572645353125,120.09142314854691,107.69350899034329
2024-05-26 15:50:37,132.661172887261,128.68669399708335,122.47118605874223,122.41597220740287,111.73667206309261
2024-05-26 15:50:37,134.15786020028995,130.62805813143717,124.23641623157546,124.20033447292403,114.63319926605755
2024-05-26 15:50:37,134.85190948559492,131.63443692954218,125.29652895654394,125.10426059979707,116.07787448561012
2024-05-26 15:50:37,134.39630459943538,130.80234496601284,125.1018304699864,124.49373974241614,115.669694648318
2024-05-26 15:50:37,132.7943058579273,128.51403782025955,123.94929213064978,122.77526447270927,113.86273346242231
2024-05-26 15:50:37,130.91106076129972,126.57828236239243,122.68948938125926,121.45243714286597,112.15003750325874
2024-05-26 15:50:37,129.43464115733582,125.57776629433273,121.61244550216784,121.11780181667406,110.87661977648415
2024-05-26 15:50:37,128.2406034586367,125.0104180929436,120.39191992195812,121.00710357034332,109.45050899239975
2024-05-26 15:50:37,127.20080709775306,124.79754523534675,119.25336964961333,120.61642619335706,107.85896256094341
2024-05-26 15:50:37,126.75514471773818,124.95338613447198,118.78007388238532,120.50579869021607,106.60276258230324
2024-05-26 15:50:37,127.59861962845567,125.4932610486284,119.30820064408489,121.51500815679088,106.61652895071165
2024-05-26 15:50:37,129.52501807892708,126.18043797154468,120.8836230923628,123.42557469275776,108.15582222343237
2024-05-26 15:50:37,130.77593126708456,126.2219688565009,122.29415002283673,124.68337164880413,109.43416073306086
2024-05-26 15:50:37,129.6088488630169,124.6915820916671,121.58236820525548,123.78051789693005,108.36440513252698
2024-05-26 15:50:37,126.982455250139,122.1933456369933,119.25543818560807,121.51827516325227,105.88095428801422
2024-05-26 15:50:37,125.62630554626386,120.99530266533127,118.05440126212557,120.5485451114219,105.00223388214155
2024-05-26 15:50:37,126.29267996744048,121.82941937815376,118.90094765664934,121.62632071091501,106.18521082656196
2024-05-26 15:50:37,127.45184529028661,123.27465010301023,120.42876066618521,122.91229924268404,107.4970377598256
2024-05-26 15:50:37,128.54034621608025,124.68140181842298,122.24053693942756,123.77431014641286,108.80602246168141
2024-05-26 15:50:37,129.80689853312484,126.01547115555665,124.20604102401191,124.57109267023687,110.38020799468163
2024-05-26 15:50:37,130.27597838920795,126.40617401414826,124.71371816998197,124.17927772384903,110.3475214037991
2024-05-26 15:50:37,129.29882822203513,125.32593203057732,123.21615381671891,122.03279058565506,107.77884208601218
2024-05-26 15:50:37,128.04048595480296,123.42206174258338,121.498572435586,119.69319483445014,104.76768978690197
2024-05-26 15:50:37,127.07732487810358,121.22756710799194,120.33947654156822,118.05921824125306,102.73882426744579
2024-05-26 15:50:37,125.82980821313332,119.08943018577689,119.14353882424743,116.58338053096435,101.10886531970533
2024-05-26 15:50:37,126.19594190284005,119.40945760711607,119.82850172743937,117.2222867140703,102.1531572847943
2024-05-26 15:50:37,129.70611562821657,123.14989880555879,123.65419557392742,121.31129494926083,107.43389355627833
2024-05-26 15:50:37,133.24111353532265,126.5980513863924,127.37494972850264,125.13219246575349,112.38266440331755
2024-05-26 15:50:37,133.82274695554392,126.90592272362983,127.93457700862334,125.57938423157881,113.29127505413447
2024-05-26 15:50:37,131.80847725865786,124.64437860374257,125.59875524032321,123.10567928412317,110.78055894921825
2024-05-26 15:50:37,128.17791046761633,120.63422932663312,121.87354125060443,118.82856347343042,105.92376547961167
2024-05-26 15:50:37,124.43454085311024,116.28814705463618,118.8230520399516,114.79635812839108,100.81537783759839
2024-05-26 15:50:37,123.51640676366293,114.70827870666304,119.22711089878071,114.46824024442202,99.39543104726366
2024-05-26 15:50:37,126.39881660497376,116.93746862202227,123.42837588961936,118.52924782531954,102.93673113043245
2024-05-26 15:50:37,130.25961415239178,120.11390544852284,127.905759460413,123.16759914622206,107.69684273338602
2024-05-26 15:50:37,131.9177326813842,121.30204230182623,129.18957428764486,124.53904058479029,109.51940025575789
2024-05-26 15:50:37,130.30711903897495,119.72849737084663,126.78166897419138,121.99272839651522,107.76432501838869
2024-05-26 15:50:37,126.25910771672648,115.92788649322301,122.13261894402154,117.06897999116023,103.72406942574942
2024-05-26 15:50:37,122.30629078512341,112.34524925899565,117.7449735725627,112.65654324046253,99.77816146215318
2024-05-26 15:50:37,120.54148495538071,111.09737065553618,115.77527295244721,111.3007336944759,98.39389997194839
2024-05-26 15:50:37,120.46364248066996,111.41981749654096,115.76729540565972,112.38330367406964,99.30382056345043
2024-05-26 15:50:37,120.58896589870602,112.45465733359913,116.29087828381395,114.01805732659359,101.02479138004448
2024-05-26 15:50:37,121.35205845369936,114.99642957414203,117.90498953754468,116.4743032561108,104.06256954084273
2024-05-26 15:50:37,123.3379707964748,118.66866311957463,120.59164282195032,119.83024889677083,108.3054646767507
2024-05-26 15:50:37,124.73241314583103,120.90183675499804,122.3386550685301,121.79164685487726,110.99457567629703
2024-05-26 15:50:37,124.58405873019692,120.53778378175933,122.73372123565598,121.24368763288214,111.02182860932587
2024-05-26 15:50:37,124.48831574228194,119.61813558071299,123.19363742145046,119.96322660555754,110.70485727232165
2024-05-26 15:50:37,125.57237260309861,120.17250140677918,124.09856614848454,119.52159439234244,111.72161614364133
2024-05-26 15:50:37,127.76371915308891,121.948011650361,125.2474862674431,120.33295522244126,113.81203717932165
2024-05-26 15:50:37,131.5704844370647,124.85193495097103,128.10257489118894,123.51157688759099,117.79825139023141
2024-05-26 15:50:37,136.64616601088446,128.78533079399307,133.01282618035526,128.8378180085854,123.76345759164026
2024-05-26 15:50:37,141.14006630231802,132.53212150463733,137.6871640202194,133.9260288476267,129.40497735383582
2024-05-26 15:50:37,144.2868907780597,135.48194056053924,140.72975772291164,137.70746266637184,133.6636955944801
2024-05-26 15:50:37,146.827068415414,138.27443440071144,142.61739657178504,140.56919991047226,137.4928837629054
2024-05-26 15:50:37,148.96953664744836,141.2288407128355,143.69980114231626,142.34385320871758,140.89821438518848
2024-05-26 15:50:37,148.4345541606193,141.6119236656404,142.2791437147123,140.9329784310871,140.81452804866012
2024-05-26 15:50:37,139.630114732157,133.28174370726612,132.86079979895572,130.77742113069223,129.6118086352441
2024-05-26 15:50:37,125.14886360031377,119.24813489004008,118.23524758505,115.66786974358911,110.63099053225372
2024-05-26 15:50:37,119.19860670055957,114.24642732641303,113.53029658660685,111.82760567177587,103.2932329566971
2024-05-26 15:50:37,123.97472984253983,120.20508510546571,120.35296883754275,120.48362611954228,110.4412229157901
2024-05-26 15:50:37,127.30472388990765,124.21652893004138,124.80776446813951,126.15816068187786,115.4065641778752
2024-05-26 15:50:37,123.05820650810709,120.10486663489398,120.46553809134409,121.5580388629919,110.19264814568149
2024-05-26 15:50:37,116.22041831149467,113.55571032742202,113.7035255041544,113.9196884887639,101.80477092711648
2024-05-26 15:50:37,114.43002533414291,112.16521710678627,113.09594679282347,112.77814161426859,99.88302666562296
2024-05-26 15:50:37,118.04450698521717,115.94544645968122,118.477111940595,117.90688420998106,104.76222619317411
2024-05-26 15:50:37,120.46606651077592,118.17251275948962,121.71770694239402,120.99029123939876,108.21338313493385
2024-05-26 15:50:37,117.53478676494673,114.64246407564349,117.79160094575684,117.1345389968128,104.4904234191081
2024-05-26 15:50:37,112.75948601012672,109.40413048631174,112.01108331484805,111.1922106117229,98.34598770354933
2024-05-26 15:50:37,112.54674509150419,109.02508358335481,112.54231014102601,110.96871781206674,98.14811116779157
2024-05-26 15:50:37,117.45156765999349,113.56649962365665,119.18083555215972,116.75262676024066,104.15307229644856
2024-05-26 15:50:37,121.27691761222181,116.87900072049976,124.35705975231977,121.2437115086328,108.87154912400618
2024-05-26 15:50:37,120.16968968276888,115.72905323677658,123.70966342390824,120.2092702064173,107.61142568946119
2024-05-26 15:50:37,117.36313727187725,113.67962765501338,120.8510637718689,117.35462516615493,104.03466636111456
2024-05-26 15:50:37,117.02177888125212,114.69784243520277,120.83494308961716,117.56510150639528,103.59676332874193
2024-05-26 15:50:37,118.66237578711423,117.84594099912702,123.23893209548459,120.509757279165,105.82189831554513
2024-05-26 15:50:37,118.77636175260021,119.02539647623045,123.75581098402881,121.4812499881264,105.98035310058668
2024-05-26 15:50:37,116.4173037498195,117.02733652360394,121.28033188093912,118.53174127822581,102.95038821405939
2024-05-26 15:50:37,115.31148990473656,115.66910157355949,119.97255202431893,116.04369535745641,101.10276679283061
2024-05-26 15:50:37,118.73424788804911,118.40729476700416,123.24474967319385,118.51700153512135,104.13500129695706
2024-05-26 15:50:37,124.2688746962495,123.3339863648023,128.5474719147282,123.97126524624775,109.80418527960815
2024-05-26 15:50:37,126.92899014308455,126.08849158947973,130.82290381789915,127.0216636293309,112.7983816885387
2024-05-26 15:50:37,126.33673857296705,126.28035624305119,129.92831252332164,126.788224927864,112.51327220476094
2024-05-26 15:50:37,125.58259536759104,126.36155291205317,129.32938655885405,126.10624921055367,112.2863323654193
2024-05-26 15:50:37,125.70915850521688,127.06180744522916,130.02597415573635,125.96272793779099,113.29693147898206
2024-05-26 15:50:37,125.47213928214605,127.30719488493524,130.48381035014367,125.1750379597223,113.64914012918966
2024-05-26 15:50:37,124.20677480652067,126.46604345249959,129.76349278582708,122.96224978794706,111.73004186194986
2024-05-26 15:50:37,122.41600981000724,124.93553917204694,127.91980902300776,119.846502167862,107.99821652356502
2024-05-26 15:50:37,121.27348434955447,124.11957086354687,126.07546472639503,117.64172156111158,104.79546078118277
2024-05-26 15:50:37,122.36658995313653,125.66741473876905,126.2363412834938,118.31981445281899,104.7516382046763
2024-05-26 15:50:37,125.35043414287492,128.99301097936024,128.1200117317514,121.16804052553712,107.2686193528277
2024-05-26 15:50:37,126.77352194409598,131.04205209190775,128.10616613640963,122.50239759167503,108.38128142269136
2024-05-26 15:50:37,124.87226039161172,130.1822911948724,124.6780631867907,120.61367376121883,106.11430887542434
2024-05-26 15:50:37,122.59709447032735,128.04844586375705,121.57138651859813,118.25534903496771,103.55926086870214
2024-05-26 15:50:37,122.02925686081535,126.27616563051347,121.40450570306544,117.54367083806845,103.20000271433004
2024-05-26 15:50:37,123.21353809610046,126.08642449185169,123.84258499138883,118.73972793033113,105.2025164057893
2024-05-26 15:50:37,126.59517411259569,128.57677921063058,128.58345773535314,122.1924896433845,110.0256539341521
2024-05-26 15:50:37,130.72625864424276,132.34521321470112,133.53486138735227,126.15650842647031,115.5231567389794
2024-05-26 15:50:37,133.62962917313732,135.3973233587516,136.3746826476264,128.7503479248608,118.95337844754755
2024-05-26 15:50:37,135.1446170686511,137.69335853949843,137.24567385682747,130.51230981744155,120.74674987795943
2024-05-26 15:50:37,135.47622036206533,139.0911272534948,136.80207429018031,131.44538972086988,121.61903549120262
2024-05-26 15:50:37,134.84491115015078,139.11181334203795,135.40454136705387,131.19849132864258,121.5957309702193
2024-05-26 15:50:37,133.5961713229986,138.05949525119948,133.64723698046217,130.11912734606702,120.71564674157709
2024-05-26 15:50:37,131.48900226347325,136.1008496792672,131.60630174543033,127.91233064547852,118.47074561257051
2024-05-26 15:50:37,128.22199754401902,133.30694695926064,128.87408243157464,124.2883722699015,114.73276717457946
2024-05-26 15:50:37,124.63665294632285,130.01004653370316,125.90869640003008,120.21653228990735,110.62523779995064
2024-05-26 15:50:37,121.77089706933323,126.64505227778389,123.44098186597999,116.8670008509417,106.98063955812187
2024-05-26 15:50:37,119.9280203692839,124.09189522749644,121.91942004750268,114.7833904027794,104.3992327650059
2024-05-26 15:50:37,119.67168154053223,123.52827060381014,121.92164804317892,114.79073940599291,104.27360003192064
2024-05-26 15:50:37,120.80759282886258,124.60021415990093,122.78701954715808,116.49426236681256,105.98142556673066
2024-05-26 15:50:37,122.01575617677835,125.82556793790853,123.5852408374088,118.16949280888144,107.57135377288625
2024-05-26 15:50:37,122.84990718007623,126.79761700908917,124.39585732747749,119.05713911935165,108.55662413913888
2024-05-26 15:50:37,123.37323500802816,127.46385308478045,124.79975776317707,119.19107354369328,108.84012007118878
2024-05-26 15:50:37,123.3502154948429,127.31333759486412,124.4539167655372,118.7120882151067,108.30129867013947
2024-05-26 15:50:37,122.03438563087818,125.55588817965888,123.2703101002199,116.94770537197644,106.26336500815056
2024-05-26 15:50:37,119.27003427526209,122.28901253429773,121.15762575224916,113.69659307186612,102.62672654303988
2024-05-26 15:50:37,116.78620286154077,119.36952088564227,119.34171843468003,111.0848381171973,99.4194024303975
2024-05-26 15:50:37,115.71524313989356,118.11771773799403,118.76533892031281,110.5398251448349,97.97946324347143
2024-05-26 15:50:37,115.3872299716283,118.04810290172487,118.60218810116768,111.10389213346582,97.67815787194168
2024-05-26 15:50:37,114.76243028017272,117.79620779237725,117.80167445193955,111.05287940448872,97.34938354511893
2024-05-26 15:50:37,113.39104014317788,116.42638592785497,116.26037347306294,109.62078544390715,96.2269905632659
2024-05-26 15:50:37,111.75318169055275,114.36228169354813,114.38933846295208,107.49624367731441,94.47112698372813
2024-05-26 15:50:37,110.35946583885364,112.33765516107661,112.39215891558473,105.24504646246224,92.69461895193604
2024-05-26 15:50:37,108.80873348295668,110.17809323283521,109.84714475411785,102.54175592612903,90.28120145434754
2024-05-26 15:50:37,107.22525154640093,108.5516266601285,107.27640340290891,100.03758948402154,87.50953505968211
2024-05-26 15:50:37,107.50697285777622,109.43376790251872,107.23557442803755,100.21908044443843,87.57642135448404
2024-05-26 15:50:37,109.98679650260785,112.20788107497759,110.19422596460596,103.12983284814509,90.90920581804379
2024-05-26 15:50:37,112.31937871458959,114.14084935643422,113.30123254011879,105.3801302407847,94.03158788204348
2024-05-26 15:50:37,113.97766040072443,114.92909676744274,115.2282971160205,106.14070263854481,95.86232781378934
2024-05-26 15:50:37,116.01192163783631,116.0109997150517,116.8635669393928,107.22234210360823,97.72119453099099
2024-05-26 15:50:37,117.92649324982105,117.3545192447757,118.12824944834074,108.45712518234906,99.56988976129624
2024-05-26 15:50:37,118.97025619123676,118.41823242027945,118.47982493512777,108.93988451614987,100.88452003616257
2024-05-26 15:50:37,119.11596357137775,119.32546829306055,118.23749507396178,108.87865494240738,101.77560692685847
2024-05-26 15:50:37,118.62497740213504,119.80679832522678,117.69610779000415,108.50614948234455,102.56971323281408
2024-05-26 15:50:37,117.9718537439526,119.54075949689837,117.0286818734887,108.08010144633491,103.76434819247622
2024-05-26 15:50:37,117.0071123133026,118.54255078769579,116.26554735282055,107.43829047488572,104.7721377608087
2024-05-26 15:50:37,114.73254513363827,116.5314933008274,114.81534431958757,105.47104624452183,103.81886640685397
2024-05-26 15:50:37,111.89600766743227,114.26749080437244,113.52635891063618,102.82510147666338,101.78041064519157
2024-05-26 15:50:37,110.84500515103481,113.47985831812264,114.30948141899057,101.88543289980666,101.86389641517003
2024-05-26 15:50:37,111.92769349368045,114.50342019411057,116.75239028066895,103.37656043141874,104.80287678982567
2024-05-26 15:50:38,113.86582830459622,116.28259394391686,119.07788811372859,105.96953384694649,108.92023855496917
2024-05-26 15:50:38,115.14372857685939,116.98871606329152,119.84576515303452,107.48501363366321,111.87512345444033
2024-05-26 15:50:38,115.33300685871026,116.19502034066454,119.22511514221978,107.5897745864382,112.9488554776909
2024-05-26 15:50:38,115.78107052622451,115.80170523607765,118.93216472368763,107.88012610910383,113.6677065879437
2024-05-26 15:50:38,117.10386008719239,116.79696831068463,119.37391893745342,108.77793194298948,114.66711934344653
2024-05-26 15:50:38,118.6745203826834,118.39869201227407,120.20600999540724,110.0985556186196,115.93044034180105
2024-05-26 15:50:38,120.17148008476408,119.78577999922929,121.60859464777116,111.7590896214214,117.91693427794948
2024-05-26 15:50:38,120.97681556674019,120.10020833756285,122.76563102644582,112.54953765620039,119.93007802847018
2024-05-26 15:50:38,120.04859156015863,118.73414613300216,122.29454380377325,111.31525108349653,120.19924969466464
2024-05-26 15:50:38,118.37383862005603,117.22330243013332,120.67020812503942,109.29898093034038,118.8919017250312
2024-05-26 15:50:38,117.48109867515996,117.03442455290113,119.3878894410071,108.18783662621559,117.59498948782748
2024-05-26 15:50:38,116.48476255004309,116.55758133126179,118.09605680630109,107.04645182357369,115.85492473312637
2024-05-26 15:50:38,115.08168931654012,115.08528903682623,116.14333266462202,105.31698021605584,113.61090175480992
2024-05-26 15:50:38,114.32601108271838,114.13178745542498,114.51888354039674,104.27288518220887,112.47380364314472
2024-05-26 15:50:38,114.19706745102798,114.04793326937929,113.89516986448052,104.3585362031116,112.3846442980939
2024-05-26 15:50:38,115.17217277079709,115.130631672971,114.6761858282633,105.92113234116391,113.39950165101308
2024-05-26 15:50:38,118.209498347845,117.83576950312312,117.2081971935042,109.37677158773717,116.73507841997426
2024-05-26 15:50:38,121.78607998174073,120.47408502778941,119.65265372174878,112.82927983515934,120.47624147314315
2024-05-26 15:50:38,123.23602672799471,121.19077789743773,119.70779427927278,113.83505059760346,121.38977143632411
2024-05-26 15:50:38,122.30371766987898,120.24031727488462,117.95402252993074,112.67326124420876,119.89834049881061
2024-05-26 15:50:38,120.41736540739409,118.28923508605322,116.37892502433506,110.76183278723849,117.77552642209159
2024-05-26 15:50:38,118.82186806299154,116.60388111684297,116.13206048305818,109.49870744570305,116.29070700220173
2024-05-26 15:50:38,118.67903869834578,117.06669626881822,117.57592866256346,110.4501331685191,116.87015434318016
2024-05-26 15:50:38,119.45728836682929,118.50293401852247,119.33461393213643,112.59770870196849,118.3167949834291
2024-05-26 15:50:38,119.23096786277932,118.64697600092536,119.49633590354243,113.41016120526054,118.15400775557359
2024-05-26 15:50:38,117.92181140275638,118.03599738647023,118.2342193020288,112.70505641036539,116.50968558634604
2024-05-26 15:50:38,117.2798988385338,118.46567022853807,117.579715744728,112.49203278130838,115.53564138696039
2024-05-26 15:50:38,118.13130443424481,120.3448303529364,118.73355033281905,114.05888142570095,116.59811531744654
2024-05-26 15:50:38,119.70902660484174,122.35332438875255,120.79484489089128,116.1681687221106,118.65287523194712
2024-05-26 15:50:38,121.66576213869067,123.92941408998666,123.17723723530668,117.71291406753897,120.9375431431891
2024-05-26 15:50:38,123.49319747047228,124.73044986977021,124.95632634091119,118.42894557717206,122.97245251677134
2024-05-26 15:50:38,123.30477529592248,123.27764794609747,123.97331714750545,117.01336373934899,122.52637889318844
2024-05-26 15:50:38,120.86437933899572,119.91071937467338,120.32820234085585,113.71657118758307,119.0958751939913
2024-05-26 15:50:38,117.97028511292099,116.49866571964868,116.37109570312646,110.64692510948231,114.75591150255619
2024-05-26 15:50:38,115.87842433620949,113.98897680090272,113.72377510758423,108.59335220569818,111.01803851487612
2024-05-26 15:50:38,116.40626656745353,114.07024868320737,114.03379751743086,109.13201467825884,110.07535770258714
2024-05-26 15:50:38,120.526761984861,117.73524390574326,118.09794028723964,113.75889345652752,113.63383002094304
2024-05-26 15:50:38,125.47646814774521,122.17028518316421,123.04670062552162,119.2604441489253,118.52008350351761
2024-05-26 15:50:38,127.93595529572032,124.10251820967548,125.37673478842534,121.53219783286818,120.3592151146607
2024-05-26 15:50:38,127.3481387670407,123.27570754099784,124.64018167217925,120.59194881825842,118.78918486568949
2024-05-26 15:50:38,125.70614137131327,121.66239323010264,123.0075635464703,119.19688729802527,116.50415707790458
2024-05-26 15:50:38,125.00754993954304,120.9112708805467,122.30828576617664,118.94320737735497,115.52224887107751
2024-05-26 15:50:38,125.53215863376397,121.40881927953069,122.58619080241523,119.57329406277312,115.72357326352659
2024-05-26 15:50:38,126.71247920987742,122.8368867056046,123.50900655530384,120.93177589803327,116.80428082050165
2024-05-26 15:50:38,127.02987407865876,123.54850730347319,123.87152470616657,121.95463437732639,117.68465631866357
2024-05-26 15:50:38,125.63882093426508,122.59346293577615,122.45548795148534,121.45685211828737,116.88220467543933
2024-05-26 15:50:38,123.48016148502631,120.8394883428795,119.88812591290562,119.88782185655438,114.65009379514024
2024-05-26 15:50:38,121.56969373320595,119.02263399572455,117.53769068984828,118.18058441312166,112.2193864805299
2024-05-26 15:50:38,120.41115175004094,117.61614938015656,116.0327905710486,116.75105662340663,110.52875311406451
2024-05-26 15:50:38,119.43949091577633,116.44355903438216,114.76248796483044,115.11549752164377,109.11391660893197
2024-05-26 15:50:38,118.62309235728385,115.58052554044518,113.72136689654582,113.70669555487672,107.76135061675174
2024-05-26 15:50:38,119.2729740928085,116.25480005295783,114.04675660106517,114.15713602850578,108.07825605889796
2024-05-26 15:50:38,121.13354580439754,118.44613922438975,115.68914830073791,116.28717898079991,110.6982433381462
2024-05-26 15:50:38,122.94895597198527,120.87464793178094,117.52726767229085,118.52648432799454,114.28886865296126
2024-05-26 15:50:38,124.0126662520272,122.3787708009097,118.22447143964882,119.56215722750335,116.58495457416511
2024-05-26 15:50:38,123.69233516030975,122.08232156804036,117.3678639046785,118.64045392859626,116.01547231083124
2024-05-26 15:50:38,122.14217201995434,120.29031991024195,115.826515439102,116.28026754834214,113.31403186035512
2024-05-26 15:50:38,120.61107968686942,118.61333522004884,114.75932057017752,114.28866178858274,110.68884540949394
2024-05-26 15:50:38,121.04263287081616,119.1922303619371,115.94904549513285,115.30993401367222,110.954777691045
2024-05-26 15:50:38,123.70403344115937,121.92131313220585,119.2038963890996,119.39415545292242,114.43314340487743
2024-05-26 15:50:38,126.44989673888085,124.45315728130291,122.119474269386,123.40203805894029,118.31617229080024
2024-05-26 15:50:38,127.74262893918944,125.83830835952517,123.60249448154809,125.64674154254413,120.58155012262907
2024-05-26 15:50:38,128.47572435705436,127.25642349892067,124.7451575844677,127.58169562947374,122.1035776622086
2024-05-26 15:50:38,131.0140978186656,130.6133201500402,127.78836875960023,131.51985276142523,125.58021945261024
2024-05-26 15:50:38,135.66896676617898,135.70086325708027,132.77906333552673,137.16175315104368,131.25670175472845
2024-05-26 15:50:38,140.95946001659067,140.63458205444465,137.79791323558533,142.88709034091625,137.24684562335023
2024-05-26 15:50:38,145.94453523925318,144.69499595745532,142.1267010373605,148.15643979373755,142.5671756641702
2024-05-26 15:50:38,149.05387249960913,146.7663172424713,144.62350397655857,151.07583537148307,145.51530533075547
2024-05-26 15:50:38,148.03245725210667,144.38047524244067,142.74140101167652,148.60292949147708,143.12119603828495
2024-05-26 15:50:38,142.0812407363681,137.20882150234493,135.64284096110813,140.44707369617586,134.33717278387522
2024-05-26 15:50:38,133.29437097577036,128.35884434236405,125.63570769761968,129.81712911231952,122.23511011341445
2024-05-26 15:50:38,125.24321260546947,120.89913529824392,116.65785931545514,120.90100029764025,111.63362831160134
2024-05-26 15:50:38,120.60124097860009,116.05772758121003,111.82168093753076,116.35772796720548,105.28891536881943
2024-05-26 15:50:38,120.34442898142098,114.44709463347992,111.88095654158406,116.50897409259923,103.63923785506464
2024-05-26 15:50:38,122.65469718618415,115.1096922717672,114.7979661189865,118.93293598598945,104.90945052774751
2024-05-26 15:50:38,124.37711969278915,115.79198166402512,117.08123021499618,120.22873674594089,105.94597727311253
2024-05-26 15:50:38,124.69021026669913,116.19802626142479,117.51429001305647,119.83486826320276,105.84586932496266
2024-05-26 15:50:38,124.24966929992598,117.03038810724348,117.15538611251128,119.15800789542263,105.54105307724797
2024-05-26 15:50:38,123.42942939478685,117.88799179890596,116.61717763945597,118.91055936817843,105.32292968755266
2024-05-26 15:50:38,122.82808248324267,118.51789495420607,116.61827942934545,119.44018591300281,105.31975955162474
2024-05-26 15:50:38,123.75218287307231,119.77008798063626,118.73048772098981,121.53580305919294,106.61239581646225
2024-05-26 15:50:38,126.87809227797337,122.16251388802867,123.04296304925371,125.44468793993559,109.79453899662693
2024-05-26 15:50:38,129.75819067237026,123.71592837218226,126.27337936638085,128.4619552504105,111.91317658368817
2024-05-26 15:50:38,129.66829219044678,122.38245262912649,125.42710999311714,127.66634754690796,109.74462604862536
2024-05-26 15:50:38,127.47866666808049,119.59670305426002,121.99862012945232,124.67218533306482,105.19323725148058
2024-05-26 15:50:38,125.21900747544254,117.5371129835459,119.12775698607491,122.1900348918841,101.57175009557352
2024-05-26 15:50:38,123.63238830988627,116.60670850150217,117.69704805581539,120.57296522723401,99.33307847023855
2024-05-26 15:50:38,123.02460816006634,116.695092234362,117.43439200785721,119.84270936733515,98.18922728789688
2024-05-26 15:50:38,123.48579762774507,117.458545932735,118.20315817274962,120.17939451417593,98.03757969887081
2024-05-26 15:50:38,124.61245247493943,118.31745363039974,119.5075251883123,121.3019458571167,98.4190921274619
2024-05-26 15:50:38,126.11925166747935,119.33722099227114,120.99619996670931,123.07830020280386,99.31686220077822
2024-05-26 15:50:38,127.64190851367195,120.44572881644682,122.41565293504883,125.12713941171265,100.74350062688771
2024-05-26 15:50:38,128.22530524622377,120.82627552924845,122.94162487160804,126.26917174067188,101.63114449960231
2024-05-26 15:50:38,127.74476661467666,120.61167305107529,122.782477347329,126.17831039523064,101.77275906753243
2024-05-26 15:50:38,127.56179284542299,120.80477716271969,123.58482848710332,126.11808684249809,102.70210705462567
2024-05-26 15:50:38,128.06826215841946,121.41527949361225,125.21801265376774,126.63701117961392,104.50076052724825
2024-05-26 15:50:38,128.02179558027962,121.417548840089,125.61937329383113,126.64221494124281,105.30603326057373
2024-05-26 15:50:38,127.02932955388681,120.54106462678531,124.47382072670501,125.9118142175231,104.7428933553366
2024-05-26 15:50:38,126.68521472249742,120.40892174784211,123.78738413358074,126.20939709078576,104.95809780602801
2024-05-26 15:50:38,128.7996883090251,122.68078935806724,125.34221370732553,129.04133832191417,107.89892415040484
2024-05-26 15:50:38,132.40961557658724,126.29884996414972,128.5034465320819,133.29874297883396,112.32102573327198
2024-05-26 15:50:38,134.40927372880077,128.33348950828008,130.69393526781568,135.70505110256533,114.58994320417713
2024-05-26 15:50:38,133.4554482993234,127.48138773946751,130.2754797319758,134.51780566153144,113.21436775183565
2024-05-26 15:50:38,131.60341429989737,126.06461214767211,128.96919169403077,132.04616433362904,110.70204477077286
2024-05-26 15:50:38,131.69583055254745,126.82924273991941,129.55988976392587,131.583356497963,110.12105800603776
2024-05-26 15:50:38,133.47923128511866,128.9381311286911,131.21151859109702,132.93502704331058,111.36465746497899
2024-05-26 15:50:38,135.04992418880508,130.3496395085272,131.61938815705668,133.75885403023665,112.4462027985884
2024-05-26 15:50:38,136.0801971978971,130.70535484380233,131.01256834537153,133.29620919014073,112.56700358223584
2024-05-26 15:50:38,136.27176285725733,130.1836074509207,129.85094757032468,131.78780348084848,111.5689422449649
2024-05-26 15:50:38,134.7024414594283,128.33192929541698,127.25447903004223,128.96858121174668,108.80406692637797
2024-05-26 15:50:38,132.24582685724022,125.71732609327037,123.97204650488055,125.68564227487687,105.23909395055837
2024-05-26 15:50:38,131.8988239450537,125.087591334306,123.22776583142338,124.82592897804153,104.33574413622564
2024-05-26 15:50:38,135.0753334070116,127.66664781066908,126.28260897576646,127.69687471092128,107.53136390644724
2024-05-26 15:50:38,139.71350910230544,131.17530786329357,130.54823570518766,131.9147426181994,112.3617300707942
2024-05-26 15:50:38,143.09719378140608,133.33806875046918,133.47819155636992,134.57411025461803,115.86640496156623
2024-05-26 15:50:38,144.41342979428546,133.649896938366,134.3205659931727,134.83472342916036,116.76936500738458
2024-05-26 15:50:38,144.24835854591976,132.49474815722235,133.46584168683057,133.2759923966743,115.54291377220106
2024-05-26 15:50:38,142.82323987850808,130.29511527383087,131.54077339679154,130.47403077788306,112.79274884602248
2024-05-26 15:50:38,140.69826637923484,127.58053361665927,128.96858426669164,127.3366201819178,108.86742133193424
2024-05-26 15:50:38,139.37969157716526,125.79517769380534,126.94457815457953,125.42423074556348,105.29643911488148
2024-05-26 15:50:38,140.02568748021346,126.34730613955375,126.74804617350426,125.83437224180297,104.06951131414215
2024-05-26 15:50:38,142.60863605964641,129.17081624117196,128.58441367844858,128.34089613445417,105.59597228654347
2024-05-26 15:50:38,144.94780934874018,131.7618934371248,130.3901872005197,130.5709517376281,107.5327984983754
2024-05-26 15:50:38,143.76450041593296,130.62711136600737,128.59899975730733,129.00562242309786,105.8400448276566
2024-05-26 15:50:38,139.37571284501703,126.44076696812556,123.82921498783999,124.23911919365395,100.78637957974114
2024-05-26 15:50:38,135.35956020039947,122.99779754298304,120.09384428320236,120.622575805405,96.75804536532664
2024-05-26 15:50:38,133.15392147017778,121.56086051393098,118.65495279642994,119.77432577330615,95.09685471367189
2024-05-26 15:50:38,131.6569031685008,120.95716130353202,118.19450989946773,120.11717694829466,94.39906235427758
2024-05-26 15:50:38,129.70469884467622,119.81520127485913,117.24727046369536,119.5586831924795,93.18540293738116
2024-05-26 15:50:38,127.45860019845446,118.05303131525999,115.83956114161892,117.66229282878042,91.2247572237278
2024-05-26 15:50:38,126.18280723422288,116.65959408616979,115.11758854724368,115.87372560002139,89.84973072160848
2024-05-26 15:50:38,126.55754595122465,116.43589657923766,115.59814106218033,115.41902156581969,90.15192471133
2024-05-26 15:50:38,128.4725296852708,117.92710330273316,117.3104131588314,116.50372725054451,92.53611960694766
2024-05-26 15:50:38,130.84232361319243,120.38665110133049,119.20770706910973,118.07188885334071,95.84670810275935
2024-05-26 15:50:38,131.83076337871643,121.93273838378327,119.61451164808038,118.82312778223063,97.84063928524799
2024-05-26 15:50:38,130.50686814921355,121.33230298557358,117.88648428357409,117.84172315281218,97.44503023613714
2024-05-26 15:50:38,126.70011183195096,117.922906536284,113.64814278157017,114.10624415814776,94.03386470657748
2024-05-26 15:50:38,122.2175411536168,113.20103084914398,108.52833317336939,109.33423698289613,89.15095925002593
2024-05-26 15:50:38,120.42124662158204,110.83146915764021,106.22954601521845,107.63461663092981,87.14562788005033
2024-05-26 15:50:38,121.79039072650244,111.72973308253955,107.42550889118452,109.7861796084992,89.06665470846583
2024-05-26 15:50:38,124.16151071359982,113.9256520192566,109.61419789857314,113.05674652400174,92.02396247189347
2024-05-26 15:50:38,125.6887422655083,115.53866482351401,110.82423617750233,114.82350834123228,93.5092477431706
2024-05-26 15:50:38,125.61152313710343,115.46200315409362,110.45356744391268,114.10598074056583,92.70865077136196
2024-05-26 15:50:38,124.88922066663166,114.555172284231,109.41089450524531,112.08933550204407,91.11819666664016
2024-05-26 15:50:38,125.70947110575071,115.00918658301259,110.09104653418493,111.60492285628017,91.85227984644959
2024-05-26 15:50:38,128.1491484005183,117.00332097959169,112.96724161182928,113.57565407353496,95.34359770467628
2024-05-26 15:50:38,130.3120499089313,119.0254837173348,115.81942240215342,115.8612677656415,98.8767906927841
2024-05-26 15:50:38,131.8600127068666,120.81915885214163,117.52848824267643,117.59575888128275,101.69926980831684
2024-05-26 15:50:38,133.16125242089694,122.63096354225382,118.36851719138892,119.42366512596882,104.71430087535293
2024-05-26 15:50:38,133.61152636528615,123.79714420790955,118.15945271665677,120.65150321810171,107.25620567982307
2024-05-26 15:50:38,132.6148011513819,123.61535253964333,116.54882193116336,120.19528460805891,107.98588583143193
2024-05-26 15:50:38,130.79549531893332,122.30633782553181,114.74264732774371,118.72992405401158,107.46014596202149
2024-05-26 15:50:38,129.23612369553322,120.22831457277849,114.06733330692377,117.37767397907206,107.20213509084142
2024-05-26 15:50:38,127.70498401990568,117.3966803687126,113.54958735358069,115.8013176297987,106.69441863681017
2024-05-26 15:50:38,126.1729211347567,114.47709219748342,112.54792379756815,114.02158923849476,105.50118172285443
2024-05-26 15:50:38,125.45902547335483,112.48693162021246,111.86796714932106,112.90457084013157,104.91963165717576
2024-05-26 15:50:38,125.63137328878622,112.21277538608113,112.00824127848976,112.71454105252076,106.11049441651717
2024-05-26 15:50:38,126.40350116201267,113.5752880255475,112.78536335909862,113.22955167117452,109.0005287987986
2024-05-26 15:50:38,127.53986202398727,115.81904895489707,114.07740376012951,114.50820343590198,112.59255539382937
2024-05-26 15:50:38,128.59421502192671,118.21831602645118,115.77272433242182,116.25879161798304,115.82790790635137
2024-05-26 15:50:38,128.77695337192156,119.49485034170948,116.58161531389246,117.12758754981346,117.1219882577662
2024-05-26 15:50:38,128.52873780983145,120.05000711890949,116.8294032312085,117.76445720471901,117.37148771558051
2024-05-26 15:50:38,129.59155963622504,121.85408663997373,118.82273177606089,120.24475249707481,119.70241533705895
2024-05-26 15:50:38,130.65612998615984,123.37223665564245,121.14493606542449,122.29000707265809,122.32121891685208
2024-05-26 15:50:38,128.88798340425032,121.72669144122193,120.7957880116836,120.52979578410793,121.39446588474935
2024-05-26 15:50:38,126.35263609379,118.98849451128811,119.39858575473286,117.57042879952033,119.06725332532655
2024-05-26 15:50:38,126.72122696904825,119.00321365537833,120.03502653374643,117.75929502570749,119.86667870858855
2024-05-26 15:50:38,128.78413261150345,120.59193684072744,121.68619054734646,120.18428339446554,122.86386344660367
2024-05-26 15:50:38,128.75599124924437,119.77196878052892,120.9040952082736,120.60085790274239,123.21681044876827
2024-05-26 15:50:38,126.30909840944382,116.85092381737515,117.80456371146417,118.46737853542119,120.66539293289557
2024-05-26 15:50:38,124.84418522987859,115.59173707670338,116.13646783486293,117.56509391187633,119.81628652444846
2024-05-26 15:50:38,125.78633402456164,116.99307457198515,117.31177386570849,119.38197363039023,122.21017000667729
2024-05-26 15:50:38,127.28336645208438,119.03553400329389,119.37945359589791,121.71525350357932,125.14561849705146
2024-05-26 15:50:38,127.79133129437261,120.1309930568062,120.58527051606436,122.85449246264085,126.73776210489453
2024-05-26 15:50:38,127.74208563091747,120.58947723974613,120.95686945174118,123.34202270094939,127.96638303787277
2024-05-26 15:50:38,127.91570843981958,121.23282086859646,121.29238964385561,123.91286888832984,129.57300105956165
2024-05-26 15:50:38,126.85546866033755,120.89734069704467,120.77547550253311,123.17419926663717,129.44091473506103
2024-05-26 15:50:38,123.1871875749574,118.50883844111401,118.12062156983052,120.00727567468527,125.9349779826533
2024-05-26 15:50:38,119.48202112251047,116.42841451203321,115.56751446512375,117.29436876810101,122.3806130690947
2024-05-26 15:50:38,119.05772355338662,117.10493344498711,116.36512203000386,118.17150159618647,122.9765279889257
2024-05-26 15:50:38,120.94199794195092,118.90053092211649,119.4226150168531,120.9221416190139,126.14015794777099
2024-05-26 15:50:38,121.6655970115248,118.69370222584674,121.07952482912177,121.99010903496948,127.5483914259162
2024-05-26 15:50:38,120.42430074454218,116.39575476530672,120.43246267386553,120.83668041211911,126.511496348442
2024-05-26 15:50:38,119.24817313180513,114.42444317184996,119.44904354544667,119.54314679251236,125.56210861128474
2024-05-26 15:50:38,119.12505097521334,114.02056060717851,119.4720380714267,119.37587860224926,126.10551302364564
2024-05-26 15:50:38,119.4495165786258,114.41811377025935,120.25335135058808,119.86826528190845,127.26852883703424
2024-05-26 15:50:38,119.52757232304937,114.71131506130824,120.92807250752463,120.0519486367033,127.61206664694811
2024-05-26 15:50:38,119.63180196358238,115.4065101888113,121.92238589988399,120.2291226479971,127.70154250532813
2024-05-26 15:50:38,120.67335880108875,117.2905045842725,124.32269971437499,121.58717203727642,129.26435468016493
2024-05-26 15:50:38,122.12224942573896,119.49703575468976,126.87319423040225,123.49580731916214,131.4732233989644
2024-05-26 15:50:38,123.00365583642103,120.9026100415184,127.68195628870147,124.6635062693312,132.68584629153025
2024-05-26 15:50:38,123.4893821193261,121.38444288747296,126.73142248726487,124.92295581272263,132.84821856797873
2024-05-26 15:50:38,124.42788583074234,121.55589004635215,125.41970003952461,124.98268194215436,132.8915811704391
2024-05-26 15:50:38,125.52469733591312,121.62975346145556,124.49358543040768,124.92983625979072,132.81604080635995
2024-05-26 15:50:38,124.57391800176264,120.12933349714562,122.5419818605808,122.81295015120303,130.57869950164928
2024-05-26 15:50:38,121.60055548492666,117.15565499836075,119.62801823992349,118.74246516706327,126.60226713378276
2024-05-26 15:50:38,119.76805850890935,115.68943301811461,118.62341842509505,116.42514722698604,124.90251718676869
2024-05-26 15:50:38,119.91208385895581,116.11222031704082,119.60775595139422,116.62353554806518,126.00440305938245
2024-05-26 15:50:38,120.47986338666696,116.22946202982179,120.28061403133904,116.95065686414435,126.948657114176
2024-05-26 15:50:38,121.02677811052223,115.58601289411864,120.26153859312976,116.74504972615574,127.10629616528209
2024-05-26 15:50:38,120.93226510557166,114.32584987213896,119.23902164299969,115.7392951787287,126.41694743514617
2024-05-26 15:50:38,120.05738320746049,112.66266615817268,117.48798536542638,113.97094524915207,124.76010822960123
2024-05-26 15:50:38,120.13189038625421,112.24888335449424,117.13215077475266,113.46982574142393,124.14562732540341
2024-05-26 15:50:38,121.8654249042555,114.02663743477336,118.66336412336724,115.24698074463987,125.4820273802404
2024-05-26 15:50:38,123.69300247635078,116.29570644696227,119.97399169758445,117.24655873420288,126.56737025260622
2024-05-26 15:50:38,124.20375989765603,117.26474131378075,119.59621695241343,117.5811096453284,125.66526587040092
2024-05-26 15:50:38,124.18250168747066,117.92094244826347,118.98630724945379,117.45548222744026,124.19576699231929
2024-05-26 15:50:38,124.22678962303124,119.06214553695577,118.93375167476906,117.79060632612781,123.174392659689
2024-05-26 15:50:38,123.15720392117171,118.91296115749181,117.52310569043554,116.85785502896148,121.08356629848774
2024-05-26 15:50:38,120.95440643305861,116.9996444162704,114.7565753855095,114.28584075729567,117.83750882100459
2024-05-26 15:50:38,119.91738945259083,116.13394037552175,113.7720400384556,113.04756950753654,116.38027292049102
2024-05-26 15:50:38,121.70337374491638,118.12670043470685,116.2415940582725,115.11375169316165,118.49627964174226
2024-05-26 15:50:38,123.67967153224774,119.83986344962278,118.86443637688,117.16057784557104,120.48268787613591
2024-05-26 15:50:38,122.2613609686014,117.94572183764448,117.75638660154803,115.36946172412935,118.075893828418
2024-05-26 15:50:38,118.93754551950789,114.76014630270073,114.89355764238407,111.98034328799251,113.67854636241108
2024-05-26 15:50:38,118.2203392016973,114.99670469640276,115.21487448739511,112.2646612969191,112.8998229709792
2024-05-26 15:50:38,121.65117542917328,119.37207495561765,119.71297946528298,117.46488439006855,117.07373514957685
2024-05-26 15:50:38,126.0176654874219,124.09005565320874,124.62415602170805,123.49273905866625,122.07044664333095
2024-05-26 15:50:38,129.3074328804039,127.3039794959551,127.95647424623527,127.75628210800295,125.29438554905694
2024-05-26 15:50:38,132.62938247635526,130.24344991380187,131.06852432993833,131.33440258493448,127.89013263035963
2024-05-26 15:50:38,135.90973134919165,133.2166713192526,134.01532317951256,134.7847064695023,130.4786598540283
2024-05-26 15:50:38,139.53052014892597,136.87688866284833,137.62591650387762,139.07720687166255,134.74464919403744
2024-05-26 15:50:38,145.01743640242358,142.19910523095015,143.92030392606483,145.81879274756545,142.7948984562866
2024-05-26 15:50:38,151.64602869488144,148.23921973765985,151.41564904941967,153.73738397043252,153.02028095888832
2024-05-26 15:50:38,154.4649224005532,150.3597804393641,153.9638669769449,156.5636034553057,158.63189226704196
2024-05-26 15:50:38,147.9124986442933,142.82776794996207,145.6751708651744,148.08240574014562,152.09454668739397
2024-05-26 15:50:38,133.9962468476337,127.75839652719243,129.47736583769492,131.39522101090017,135.45709082656248
2024-05-26 15:50:38,120.60138981102291,113.7912494619643,114.81058545303881,116.02422025587296,118.89776613705709
2024-05-26 15:50:38,112.40883705758307,105.64632072999446,107.16259871091444,107.43466620606102,108.95164956682952
2024-05-26 15:50:38,110.18982162793817,103.43229111924745,106.65364165496062,105.85648751110742,106.6772414253522
2024-05-26 15:50:38,113.83865395890228,106.68831649820825,111.73568884480738,110.22224315148375,111.46557833989912
2024-05-26 15:50:38,120.95105856661304,113.13040259218226,119.06745921251657,117.52926846550108,120.21969373278537
2024-05-26 15:50:38,127.33475955687221,118.85795682475218,124.25093072603016,123.12102553815599,127.89158256444041
2024-05-26 15:50:38,130.2954766516859,121.14570376016563,125.02948458631987,124.2893631019129,130.9640256894541
2024-05-26 15:50:38,129.32572650900647,119.46706588164966,121.92915779318051,121.15057057444926,128.93954272355344
2024-05-26 15:50:38,125.67435287362862,115.48278691112615,117.25915717230697,115.7562252616788,123.90081537847328
2024-05-26 15:50:38,121.95561586212838,111.98660825487747,114.34064786187707,111.48693441846954,119.30214066598472
2024-05-26 15:50:38,120.3337858935149,110.75661328512953,114.70196996596555,110.46343091616608,117.35984572152725
2024-05-26 15:50:38,120.67599708821592,111.64814089325587,116.63673682869896,111.7519304966461,117.71209609866446
2024-05-26 15:50:38,121.86251912133926,114.06495453250686,118.6223811326492,113.8654659195848,119.28194414672217
2024-05-26 15:50:38,123.65539341248447,117.42387322407939,121.01043830806182,116.45799123856277,121.68984451808726
2024-05-26 15:50:38,126.03526010026266,120.82069295267345,124.22314651790043,119.2821892185416,125.00868043986826
2024-05-26 15:50:38,128.30714123710786,123.43407729376302,127.21301583495686,121.46738608584369,128.19492658185862
2024-05-26 15:50:38,129.4448847959286,124.49664520466678,128.41487456923673,122.06941905586577,129.2533993132426
2024-05-26 15:50:38,128.7399372555392,123.51234597838905,127.32155593117497,120.4077111639467,127.61550320175759
2024-05-26 15:50:38,126.93486522537953,121.68105105376853,125.31472304610442,117.37080307373122,124.94674783260511
2024-05-26 15:50:38,125.86048002294953,121.06353122121875,124.75376140445616,115.32068953317221,123.39906079775035
2024-05-26 15:50:38,125.95636945117008,121.64369804154599,125.9256166184417,114.94459969194247,123.38337430301364
2024-05-26 15:50:38,126.92878286761334,122.78495337768233,128.06480820513576,115.83834096158313,124.66541829191019
2024-05-26 15:50:38,128.78452065230536,124.69494990659203,130.80309984584335,117.64400864399413,126.95522625859888
2024-05-26 15:50:38,130.06613064585488,125.97337825175211,132.08030149880926,118.28587098560381,128.09677588692298
2024-05-26 15:50:39,128.7858825820766,124.54689532051768,129.35188414937505,115.56537897791597,125.89430391174388
2024-05-26 15:50:39,125.75626576684124,121.73594565128461,124.0718669119006,111.28254183624762,122.23508950057052
2024-05-26 15:50:39,124.11738207813625,120.68050292541955,120.77051793891614,109.51003582768061,121.3882166647835
2024-05-26 15:50:39,124.69217309448075,121.47973996173094,120.85688778941318,110.49787726613502,123.77852179835432
2024-05-26 15:50:39,126.01611028665627,122.54337981459814,122.30519770619881,112.07868952565627,126.61704945775931
2024-05-26 15:50:39,128.610794349933,124.72709705918422,124.79642861430202,114.93630118283491,130.2742717609412
2024-05-26 15:50:39,132.6087307954149,128.60997895343704,128.20928908163714,119.16069383526035,135.62060151226058
2024-05-26 15:50:39,135.45553488948536,131.7743798199649,130.4033114027373,121.97075452775164,139.80987244621437
2024-05-26 15:50:39,136.3167174048807,132.99996153433486,130.92621232236482,122.69289844044049,141.7023727108305
2024-05-26 15:50:39,137.17588514602252,133.80626080851764,131.6327115976519,123.4481666852546,143.69377318015916
2024-05-26 15:50:39,138.6374425488632,134.78697483373088,132.94069219972226,124.61304035728007,146.35113101442371
2024-05-26 15:50:39,138.7772211087484,134.46712571329655,132.70153139212994,123.92410969168981,147.17272673904054
2024-05-26 15:50:39,136.62783526667803,132.3357106257671,130.0682596405362,120.68388825040547,144.95456214932315
2024-05-26 15:50:39,133.34948630364298,129.47053575538777,126.49861763552941,116.72346714332458,141.06551451342622
2024-05-26 15:50:39,130.3439053889157,127.02817227181657,123.2988285142265,113.83995488512898,137.52991372675396
2024-05-26 15:50:39,128.74119652347275,126.29601180967344,121.63237099114738,113.14156148569506,136.32571606502873
2024-05-26 15:50:39,129.07132835869623,127.58978326299551,122.434991440015,114.7101789245914,137.89939285525904
2024-05-26 15:50:39,131.04839610615923,130.15794370748625,125.58551860364861,117.73088521501482,141.35270327217634
2024-05-26 15:50:39,133.8521838430011,132.92801421145538,129.77310063605307,121.35440304207137,145.73076915229865
2024-05-26 15:50:39,135.43849099253237,133.84150301578302,132.31000396105628,123.43134751287512,148.27806576413525
2024-05-26 15:50:39,134.1368908276443,131.75268814491318,131.13921209336198,121.97865942049316,146.35826195199883
2024-05-26 15:50:39,131.87824576619144,129.36805775111515,128.68153778271375,119.83266936954078,142.8441312022134
2024-05-26 15:50:39,132.35271957520374,130.28962144682905,129.25727114499472,121.48389762181804,142.98568025063392
2024-05-26 15:50:39,135.21088104879559,133.47029562305738,132.1676492110007,125.57863543531363,146.40246914104847
2024-05-26 15:50:39,136.44590719377982,135.04829230571963,133.5578040157292,127.3957931444375,148.7082832003584
2024-05-26 15:50:39,134.43508330461526,133.52278399454943,132.1968700782912,125.40838163435956,147.8967269234111
2024-05-26 15:50:39,130.73951122202527,130.29715637138193,129.24706565801156,121.27117056486932,144.85347673997987
2024-05-26 15:50:39,127.32247089053408,127.49304285521393,126.33559366990018,117.50360587158231,141.55710404346482
2024-05-26 15:50:39,125.34466002249724,126.00085936469362,124.34488809105322,115.41621612396686,139.5964364345962
2024-05-26 15:50:39,124.6223054834405,125.33415716266448,123.31600745348642,114.51558630474818,139.1809170806349
2024-05-26 15:50:39,124.47463592874314,125.10454711720931,123.21214225015109,114.28900269193943,139.6243837912675
2024-05-26 15:50:39,124.40409637343089,124.90857249575284,123.48539506820754,114.24330834186435,139.83631115781992
2024-05-26 15:50:39,123.50662101576359,123.64346747924316,123.04668186138666,113.1650238371749,138.6266282867713
2024-05-26 15:50:39,121.59194803589912,121.30658989679594,121.72867076383905,111.18825001745034,135.920948192705
2024-05-26 15:50:39,120.22630633025088,119.57862362281615,120.8736392942698,110.27946853350706,133.47312814124302
2024-05-26 15:50:39,119.97588074892428,119.34427817978744,120.71406197019095,110.80511482396331,132.46103078196154
2024-05-26 15:50:39,118.80275924555842,118.52652736663713,119.04939135060224,109.99572944309361,130.86073416478038
2024-05-26 15:50:39,115.41750604598832,115.09074876031082,114.94935613049272,105.86539984180558,126.67141811286767
2024-05-26 15:50:39,112.19119059275653,111.64924075693706,111.37652559173011,101.34177309961501,122.28824301402844
2024-05-26 15:50:39,111.99054270084874,111.68873027203958,111.43324223180089,100.53847847819833,121.26910468665675
2024-05-26 15:50:39,112.7485610976538,112.97323297422436,112.63370908132245,101.3937665440695,121.39123716854972
2024-05-26 15:50:39,111.1100295457451,111.77200652567315,110.85861258292834,99.57114073669119,118.31222205488952
2024-05-26 15:50:39,108.51462905625039,109.44879312104783,107.70374529016415,96.55065535050872,113.98362117895161
2024-05-26 15:50:39,107.60939879006693,108.68759117823323,106.60496911615365,95.60754470254123,112.37315943501646
2024-05-26 15:50:39,109.20616096246846,110.28312891026006,108.39935848872412,97.49606899521451,114.41470701234788
2024-05-26 15:50:39,112.85827967813282,113.9719792112094,112.38486118569286,101.56546893420622,119.13266567395962
2024-05-26 15:50:39,116.43669085229071,117.69871855606664,116.3597525107771,105.6086008197378,123.73611791154507
2024-05-26 15:50:39,118.26573394591185,119.5560751409474,118.42922148738785,107.6813657718685,126.0647176059125
2024-05-26 15:50:39,118.92659073392173,119.89296378004553,118.81717917806722,108.1261595876365,126.58142002512508
2024-05-26 15:50:39,119.78719985807533,120.14376893315261,118.95023301595515,108.43270762399538,126.83636150492073
2024-05-26 15:50:39,121.12174633712756,120.92583739933424,119.89120205270703,109.38759391001498,127.51079555118528
2024-05-26 15:50:39,122.60266961864728,121.70658029277749,121.47557625525458,110.75226024092323,128.62158735215766
2024-05-26 15:50:39,124.35361986716146,122.39616260168776,123.22283659235126,112.22254190679442,130.46637302136864
2024-05-26 15:50:39,125.1266979485726,122.19002441942771,123.58149813061773,112.34798976907675,131.19493475816006
2024-05-26 15:50:39,123.60444753566108,120.16012705067065,121.49387405836463,110.00316664113475,128.77204271382874
2024-05-26 15:50:39,121.32173840549214,117.42594930832756,118.8907287308992,107.19297751948253,124.95003799732815
2024-05-26 15:50:39,120.42110401905664,115.66223319023997,117.89821970693454,106.17098790512883,122.23508758720195
2024-05-26 15:50:39,120.8465522775949,115.3786041037955,118.18380173942674,106.7048452978457,120.82736754622003
2024-05-26 15:50:39,120.87602040056566,115.02184988850242,117.55415391742595,106.7742719041041,119.2336783174862
2024-05-26 15:50:39,120.33176340329344,114.09070245010993,115.85813727155984,105.97704854846475,117.5944406150169
2024-05-26 15:50:39,120.7125957365896,114.29166760436965,115.3038158502882,106.10235010372396,117.5725191938709
2024-05-26 15:50:39,121.39571713005338,114.94661697136891,115.49058698345291,106.70513713739813,117.97455043859554
2024-05-26 15:50:39,120.69598935457644,114.14498249831142,114.5584935510371,105.92523707341617,116.45462866180029
2024-05-26 15:50:39,119.48379119527421,112.69200765713293,113.50920892099259,104.76838284598949,113.99583202340203
2024-05-26 15:50:39,119.84898556939999,112.56860167046999,114.33299079817539,105.57790970496639,113.45294681538397
2024-05-26 15:50:39,122.70165073310241,114.88760059478805,117.66964869925965,109.10596329884306,116.33607076685347
2024-05-26 15:50:39,127.36104081861308,119.52758225158466,123.0241745629951,114.81361963644288,122.14978413623243
2024-05-26 15:50:39,132.39073537708137,125.09795926623681,128.87846079372542,121.3828200825558,129.1615539738371
2024-05-26 15:50:39,135.83328585606301,128.9625550228622,132.71111814229246,126.13068913630813,134.6981341544744
2024-05-26 15:50:39,134.8162105328144,128.26210824614503,131.5423244879018,125.53103216706882,134.97962757955247
2024-05-26 15:50:39,128.81395602474382,122.82353129098092,125.11620851199879,119.18678375459007,128.72096192092803
2024-05-26 15:50:39,122.13808947752273,116.51694402233457,117.8223475073485,112.10700903859596,120.65375440502494
2024-05-26 15:50:39,119.46981840113354,114.07479374633839,114.83595020193636,109.54814337214749,117.10927264365243
2024-05-26 15:50:39,121.10562754250978,116.28591020066494,116.93811247352309,111.96479753293355,119.0365441049504
2024-05-26 15:50:39,123.82405673334821,119.30299358918354,120.21798793177807,115.4022377926704,122.11897356399727
2024-05-26 15:50:39,124.47394362345256,119.348829641336,120.7131785119666,115.4817578434802,122.13848174169192
2024-05-26 15:50:39,122.93622861644087,116.88900576517362,118.49749916822833,112.46601387710307,119.0882105332709
2024-05-26 15:50:39,121.366017868407,114.84794629716939,116.63411938716973,110.03907972644834,116.32237085248347
2024-05-26 15:50:39,121.10776650575775,114.76127371254128,116.82544768667907,110.11482243768343,116.06129348080475
2024-05-26 15:50:39,121.26365959262753,115.421562262539,117.33485515265335,111.37337107176998,116.948589159185
2024-05-26 15:50:39,120.88852426967341,115.50968054042494,116.68086807856916,112.29502270019344,117.22788687812849
2024-05-26 15:50:39,121.02351983572008,115.84413250481619,116.46928623061847,113.54004962966144,117.83004618265561
2024-05-26 15:50:39,122.14884196718194,116.8109613605519,117.46070495417254,115.34665851075658,119.1271857819444
2024-05-26 15:50:39,123.19310736663053,117.64172590928708,118.38010569084983,116.77005511478086,119.90813484942821
2024-05-26 15:50:39,123.73904282586989,118.46844190769617,119.28542391201172,117.90066737641136,120.38753867994001
2024-05-26 15:50:39,124.20679021510502,119.762200051225,120.73646654326166,119.12955029867257,121.36988204943349
2024-05-26 15:50:39,124.12178151947852,120.52950478533087,121.60602859088063,119.50056270407848,121.73365039999152
2024-05-26 15:50:39,122.24717418031429,118.95457718423455,120.30222126227932,117.53792574500666,119.48001987142376
2024-05-26 15:50:39,119.34229770738013,115.60950926827668,117.48131850932502,114.03518126725507,115.20339631433296
2024-05-26 15:50:39,118.51569632361,114.3244426915031,116.50870339620298,112.85921659009675,112.91476004611711
2024-05-26 15:50:39,121.2631175977949,117.0841635060036,119.41839549736237,116.19298958780138,115.28677663682329
2024-05-26 15:50:39,124.7127953606903,120.50803149705264,123.68705790064946,120.44361085023789,119.05810791156637
2024-05-26 15:50:39,125.47075238004234,121.06443664097579,125.28986221554223,121.07756677712922,119.55790707414624
2024-05-26 15:50:39,123.1536716245908,118.719751817692,123.0923494066189,117.76205517392057,115.94283074735256
2024-05-26 15:50:39,119.84900107442759,115.39312366319892,119.86202602299491,113.47575050832032,110.91433157965132
2024-05-26 15:50:39,119.20184102241114,114.05105352953181,119.58073856575568,112.3701841496453,109.17196988092897
2024-05-26 15:50:39,121.7438555423342,115.10234718358721,122.28102927887704,114.77343344080897,111.17080370970629
2024-05-26 15:50:39,124.39652866203726,116.36621694815999,124.97377336145573,117.31580944298723,112.88120234457895
2024-05-26 15:50:39,125.6597875859228,116.93811294107697,126.26817744203336,118.47627328296034,112.71489303576084
2024-05-26 15:50:39,126.03380749409835,116.81231160801212,126.49989898164054,118.45866792267601,111.58506906209742
2024-05-26 15:50:39,126.48670027239135,116.57326014644755,126.66433362808455,118.17387993610009,110.86982308466489
2024-05-26 15:50:39,127.28821598073554,116.8481281457228,127.00245091387832,118.43067560524227,111.19960805515
2024-05-26 15:50:39,127.20804699833661,116.73446185117336,126.2773618534646,118.34744960730524,110.99746842401666
2024-05-26 15:50:39,126.02667580206851,115.7507081415269,124.5160223382216,117.51908097577135,109.61015647662276
2024-05-26 15:50:39,125.46597953498656,115.33014430185393,123.63402499095912,117.51932410883961,109.04791961119389
2024-05-26 15:50:39,125.49848883635906,115.9064801207968,123.71440380703517,118.56854589751948,109.56433929643713
2024-05-26 15:50:39,124.28058888512196,115.72091633833315,122.66262648929846,118.41639483984787,108.88883172255034
2024-05-26 15:50:39,121.8074110627082,114.10831058146256,119.81866792651078,116.33338773737054,106.08785907178579
2024-05-26 15:50:39,120.4091851630306,113.43282761850888,117.73273572875951,114.98223769050901,103.67653422560291
2024-05-26 15:50:39,121.41050450805022,115.20476930057123,118.28461984459489,116.26758977793126,104.04670064659624
2024-05-26 15:50:39,123.12790953892903,117.10628250093794,119.63024885841227,118.36951466298305,105.04048066701782
2024-05-26 15:50:39,123.91733271638697,117.2078881917392,120.05860206385634,119.33349105597505,104.27113512661296
2024-05-26 15:50:39,124.62654434308348,117.01432465233144,120.31334427791411,119.91912741117731,103.37535043806737
2024-05-26 15:50:39,125.65098162434455,117.56036514197748,120.70643504105827,120.57575091435838,103.50568573099109
2024-05-26 15:50:39,125.56768157235541,117.4970296308542,120.08039368649389,120.16714445050111,103.03113586108236
2024-05-26 15:50:39,124.88693584030298,116.96890162415895,118.93402188405857,119.36965662016983,102.28101204294077
2024-05-26 15:50:39,125.39226775402634,117.62316587501857,119.14325159573214,120.05719222132463,103.38234558329056
2024-05-26 15:50:39,126.70839535000958,119.2651106760155,120.95186080130348,122.10306451162691,105.9073117598345
2024-05-26 15:50:39,127.21781689598349,120.17809638018383,122.796913488916,123.56427311310892,107.60888753232304
2024-05-26 15:50:39,125.98335586772195,119.19135753309365,122.89465047936318,123.01150654590488,107.0880701633997
2024-05-26 15:50:39,123.54441679796142,116.81746511221878,121.13259112738598,121.09012535698552,105.03941642390986
2024-05-26 15:50:39,122.02402423544012,115.36733872218056,119.86892001853238,120.25584225264674,104.31749398515774
2024-05-26 15:50:39,122.86979972025341,116.33869805859725,121.07208690791843,122.1064818750602,106.69068992547469
2024-05-26 15:50:39,125.7774431077726,119.51048993431591,124.75465646946242,126.15833621408777,111.55414261957993
2024-05-26 15:50:39,130.13888375883562,124.57230587432439,130.31499639115586,131.58227572370527,118.03833307600063
2024-05-26 15:50:39,135.13983699246396,130.57868425203117,136.17239099952195,137.36538323260532,124.9449967513639
2024-05-26 15:50:39,139.45717561856213,135.64253193105247,140.22762579713262,141.86091051809072,130.4686186641663
2024-05-26 15:50:39,141.58088823194984,138.12363812666962,141.03349629715683,143.4806312133229,133.01359092672658
2024-05-26 15:50:39,142.43957083529853,139.320378677475,140.10037688871464,143.55973576949995,134.14177957707682
2024-05-26 15:50:39,144.73220733561334,141.74907749118913,140.90894186228405,145.33770692219062,137.03586478265663
2024-05-26 15:50:39,147.83668479735604,144.30984162765196,143.17559688482632,148.17857937478212,140.488030929347
2024-05-26 15:50:39,147.3125251377126,142.91630358279946,142.22511863202772,147.28844883165587,139.33172801355303
2024-05-26 15:50:39,139.960641650595,134.73100470719223,134.8146996842739,139.07372979204789,129.81267857335413
2024-05-26 15:50:39,128.88014229016542,122.50230579994124,123.98923769509676,126.49287053452016,115.11325946723319
2024-05-26 15:50:39,121.32714266565262,113.68545507591789,116.84200379926331,117.86958685263396,104.30690826490506
2024-05-26 15:50:39,121.00309154660026,112.68833733839016,117.08512847455552,117.79817681848338,102.73506659258891
2024-05-26 15:50:39,125.26869383321252,117.04285715211354,121.67185497443356,123.02156018553717,107.2809031966768
2024-05-26 15:50:39,130.0801401071703,122.12840467896596,125.95112695465683,128.34725942392998,112.66444428094565
2024-05-26 15:50:39,133.1789165307657,124.87652122353174,127.91205426830814,130.85139991965656,115.73302383059884
2024-05-26 15:50:39,133.37785122077696,124.27578764034837,127.15162979455509,129.53670315520588,115.21612801270385
2024-05-26 15:50:39,131.11819797536663,121.73789633057139,124.53907471359994,125.58526397882699,112.43504833050933
2024-05-26 15:50:39,127.77323074095119,118.88557818981361,121.32215753309383,120.96237027707608,109.01354235465736
2024-05-26 15:50:39,124.78837222646189,116.43857496879377,118.27728811775354,117.15004796942179,105.679713231245
2024-05-26 15:50:39,123.36183631798815,115.02820283169568,116.42173774215726,115.41686501377878,103.78979958430072
2024-05-26 15:50:39,123.24101525472238,114.43057151951666,116.13696631943675,115.2616468111355,103.89784202157254
2024-05-26 15:50:39,124.03610696112696,114.55673684221443,117.01517338210948,115.82879406849158,105.25458395749783
2024-05-26 15:50:39,126.68400152477706,116.65567385932249,119.38563427647381,118.33225390646132,108.10210372696761
2024-05-26 15:50:39,131.01034052582142,120.4771693820122,123.02457214505387,122.82369549675948,112.4709328215052
2024-05-26 15:50:39,134.10050696176467,122.8449906775624,125.3967291492109,125.88448945473785,115.45942967495543
2024-05-26 15:50:39,133.50260443949642,121.13031784760719,123.96383727888733,124.2926183218002,113.91825461146848
2024-05-26 15:50:39,130.78671671544248,117.21755748259066,120.2668174467521,119.9002774015079,109.70720587648246
2024-05-26 15:50:39,129.94148713312703,115.66015967197072,118.71731437170247,117.83694089763874,108.3027978886348
2024-05-26 15:50:39,131.90575819752635,117.15108634486853,120.25089310652594,119.1993334573149,110.86437826122993
2024-05-26 15:50:39,133.73669532566115,118.32545813330766,121.57545677254201,120.4895210788186,113.13072627949084
2024-05-26 15:50:39,134.52458977875443,118.37838798695155,121.92867617278768,120.83873174403973,113.95347670491904
2024-05-26 15:50:39,135.3194293174417,118.48154574067753,123.00213473903034,121.36417522658687,114.95724079116846
2024-05-26 15:50:39,135.02827162350664,117.43300310219237,123.6969568793558,120.38088489602454,114.80677757404284
2024-05-26 15:50:39,133.95649487894076,115.89605046660458,123.70562435472925,118.20457302170314,113.92324343689725
2024-05-26 15:50:39,134.2921910417879,116.5959961640682,124.60599184513465,117.87006009490514,114.86580121500128
2024-05-26 15:50:39,135.32016755896342,118.3905527658552,125.49935027742968,118.73983484220356,116.35366812271768
2024-05-26 15:50:39,134.29969149890462,117.78206170954822,124.12892375184884,117.34196073830608,114.79650089905167
2024-05-26 15:50:39,131.02242123372275,114.60231928433045,120.77128297029341,113.49799047393593,110.07690143070455
2024-05-26 15:50:39,128.43993442972842,112.32934587922557,118.7186417770581,110.98731910720683,106.38479539488827
2024-05-26 15:50:39,128.43216223012195,113.06260835200325,119.71137474902926,111.95075423636914,106.7078415338966
2024-05-26 15:50:39,130.75713573953013,116.46973152839016,122.59046877600683,115.68157841482798,110.64049989760751
2024-05-26 15:50:39,134.24399788745586,121.07153420246397,125.71141418359443,120.40496069684153,115.60550269904854
2024-05-26 15:50:39,136.86408171058764,124.5185367222575,127.68203563827714,123.76150012660368,118.79117209956726
2024-05-26 15:50:39,138.00609695192313,125.9831414509112,128.62645838321558,125.07388005784397,120.0589812105512
2024-05-26 15:50:39,138.20086024077304,126.1751850587988,129.1642138810947,125.1575814031185,120.18324506307353
2024-05-26 15:50:39,137.84026096811596,125.98629432830268,129.30268562407605,125.03662823952834,119.55676653679289
2024-05-26 15:50:39,138.35881116635255,126.82515859613535,129.89311607092012,126.26482631678805,119.767876795603
2024-05-26 15:50:39,140.90485272751673,129.44022349062064,131.66538577910177,129.25951327463423,122.05712432887445
2024-05-26 15:50:39,143.93746427207276,132.2476333995806,133.2235661305507,131.9589130570461,124.82896720108921
2024-05-26 15:50:39,145.3108241345591,133.54217765670026,132.67639553995033,132.3982773589688,125.88910019836922
2024-05-26 15:50:39,144.99615800582023,133.36956488585852,130.37520911422956,130.80406176226938,125.10418701313661
2024-05-26 15:50:39,143.83810404369635,131.9794781157057,128.11208433310333,128.51059336697475,123.29868179473169
2024-05-26 15:50:39,142.83260379126378,130.25522874556856,127.3012539057892,127.19524821694677,121.96811045837758
2024-05-26 15:50:39,142.48798721336723,129.5623388706834,127.79990975404432,127.55296317471849,122.08548687815416
2024-05-26 15:50:39,142.12656717030987,129.82383664959903,128.12634807511327,128.45474655483144,122.47464007587189
2024-05-26 15:50:39,141.48629801937346,130.20356310501438,127.73921911852578,129.0352219401243,122.25399455420947
2024-05-26 15:50:39,141.37749443139893,130.78936758662323,127.70566047677339,129.92849469304494,122.78059020949837
2024-05-26 15:50:39,142.79155805378184,132.48295780911985,129.11897740790042,132.02941205401018,125.41171941895983
2024-05-26 15:50:39,145.09528585456917,134.44482998523245,131.13130163930276,134.15740752133982,128.4899190714108
2024-05-26 15:50:39,145.39692217595214,134.00691834356783,131.18668825450902,133.355111383013,128.56500906861746
2024-05-26 15:50:39,142.45510366984422,130.64115411266621,128.4532387535171,129.10327099157445,124.85315727389225
2024-05-26 15:50:39,137.98969873292597,126.21028562522024,124.51145645929205,123.7707932887605,119.69762449607039
2024-05-26 15:50:39,134.0695252446208,122.72264928541716,121.27544833861428,119.74606292388732,115.78149299906116
2024-05-26 15:50:39,132.40177424033055,121.4836253704332,120.512878078493,118.70431929401079,114.76835487369561
2024-05-26 15:50:39,132.76792020617384,121.53984379714537,121.69290557200874,119.70358472907007,115.71866793198961
2024-05-26 15:50:39,133.50338074499632,121.43024110339883,122.50450846344202,120.10620816505138,116.34944377415972
2024-05-26 15:50:39,133.3831847217289,120.71947517770866,121.69481600773548,118.5618888681873,115.54749793016599
2024-05-26 15:50:39,131.88891198728638,119.0624533777298,119.35977920472111,115.41291449271745,113.27321537311641
2024-05-26 15:50:39,130.02456036285108,117.15828850945265,116.98945494999685,112.45946345069443,110.80348927508751
2024-05-26 15:50:39,128.2626624687034,115.09351036270483,114.90063268105757,110.07744964722222,108.50335167449181
2024-05-26 15:50:39,126.37953124586886,112.78336723601473,112.99914890269524,107.99891784622191,106.28373782951422
2024-05-26 15:50:39,125.82820688833331,111.88719830219281,112.94637426121565,107.80571996514847,106.12086257714203
2024-05-26 15:50:39,126.61084729105538,112.28675418377776,114.17332690869327,109.3533471995236,107.7021443008048
2024-05-26 15:50:39,127.0223764299501,112.47155413088471,114.75536438259563,110.71466927707381,108.63037455275142
2024-05-26 15:50:39,127.20348286175083,112.53222179258638,115.02581288407859,111.63010503821481,108.98068100314619
2024-05-26 15:50:39,127.10482296055655,112.28310566848128,114.66198395602767,111.80585433103333,108.60708149689043
2024-05-26 15:50:39,125.64082834123084,111.01538240126135,112.42411952695434,110.28945959057256,106.38785051103442
2024-05-26 15:50:39,123.76386578302352,109.80928296030048,109.72159622380714,108.4180836397641,103.76155022493786
2024-05-26 15:50:39,123.20872913189085,110.10291527665679,109.05706384494532,108.1911601461147,102.98944934078199
2024-05-26 15:50:39,123.59473162383978,111.31705123227025,110.33919470495503,109.12633015409632,103.88623853468869
2024-05-26 15:50:39,124.14492185325386,112.59853982606901,112.19195360727649,110.0921297994776,105.2614831850311
2024-05-26 15:50:39,124.95929325214094,113.90089892692937,113.99938229687997,110.7867817750531,106.45056873535167
2024-05-26 15:50:39,125.80004351250955,114.93898180582413,115.1647583627914,110.97378883374388,106.82417882247478
2024-05-26 15:50:39,126.69588913164347,115.6936795703907,115.67263615140305,110.99627018100774,106.77183457614493
2024-05-26 15:50:39,128.07569239231339,116.44189233751847,116.37545380226042,111.67416653417037,107.29110138532282
2024-05-26 15:50:39,129.401512311501,116.94654506595265,117.30832292549282,112.73700921512736,108.04838277916433
2024-05-26 15:50:39,130.4542249870883,117.43029649172337,118.18376617197298,113.9289189000884,109.14804246237534
2024-05-26 15:50:39,131.00910036360312,117.56228219509407,118.58951997381826,114.7763271434715,110.41357188754456
2024-05-26 15:50:39,129.54971845536448,115.7316647198826,117.3235017823301,113.45068667265676,109.73880367847028
2024-05-26 15:50:39,126.34050673218164,112.65187466835121,114.65165326046002,110.45951606489473,107.05422938069086
2024-05-26 15:50:39,123.90218866406553,110.79273608314418,112.86635499498816,108.79741633093545,104.98507735691456
2024-05-26 15:50:39,123.9447284121957,111.41243867009167,113.75305588887467,110.07194723934357,105.42877694428346
