Timestamp,Channel_1,Channel_2,Channel_3,Channel_4,Channel_5
2024-05-28 10:18:41,101.17629919225308,134.6578924216826,140.75839323423548,131.71700618005113,103.18588426276295
2024-05-28 10:18:41,99.1026615283033,203.3794569623545,138.27940689856158,129.60697521748222,100.54793396962232
2024-05-28 10:18:41,97.82464642497946,250.1102215182753,136.7207999734319,128.514469053229,98.59420045604192
2024-05-28 10:18:41,98.14824358852304,255.0932023767562,136.80665142269032,129.11490290046245,98.33772883532059
2024-05-28 10:18:41,99.84444245474076,212.0859594737638,138.21667874788696,131.0063357191651,99.76476086771656
2024-05-28 10:18:41,101.77486599754185,132.59352305486317,139.88892677647056,132.88699629077084,101.7576705876111
2024-05-28 10:18:41,102.78591821211242,45.225195508194,140.9155991585343,133.5629960447968,102.9396917018143
2024-05-28 10:18:41,102.50019821518364,-17.053262787324822,141.1648811749588,132.8479056858501,102.6640050222361
2024-05-28 10:18:41,101.41730747720403,-37.293091344909584,141.1673558654113,131.58633786081822,101.30931962749271
2024-05-28 10:18:41,100.41105999773174,-23.907506498732904,141.5358124757211,130.91792314765087,99.76974748257393
2024-05-28 10:18:41,100.1022473727224,-0.22446780010999007,142.4733469391841,131.45895118532897,98.7336692443204
2024-05-28 10:18:41,100.5533873389601,13.994785756030746,143.7127338993641,132.95793680989334,98.35548395620823
2024-05-28 10:18:41,101.40135009458254,13.011549625603537,144.84901546434529,134.5787122570419,98.41036032918984
2024-05-28 10:18:41,102.22175288524441,3.1067871329203762,145.74408315267536,135.57979133713746,98.62157806573192
2024-05-28 10:18:41,102.84940611437324,-5.812095824389268,146.66163585538862,135.9006416708235,98.88661828201522
2024-05-28 10:18:41,103.51772101295069,-7.664356610778216,148.11116240912276,136.3016896166941,99.39316420024072
2024-05-28 10:18:41,104.85269978482768,-3.065553041782889,150.75679463717088,138.17754902311205,100.74589511913848
2024-05-28 10:18:41,107.86056528940355,2.717083641740582,155.64291038498828,143.37285795954543,104.14129003185234
2024-05-28 10:18:41,114.02339133410268,4.689401056843335,164.37281135905192,153.95654758006754,111.4943888955885
2024-05-28 10:18:41,125.36430743984937,2.1268490966071556,178.4349684268029,171.32973134398833,125.25448531604113
2024-05-28 10:18:41,143.89540267262325,-1.585643248905269,197.4563939082671,194.36017007664827,147.31759993567596
2024-05-28 10:18:41,169.8778463769354,-2.7964833547251233,217.78787782546,218.0816049243235,176.73890893471147
2024-05-28 10:18:41,199.7064454802028,-1.068535535970179,233.61890577100317,235.47825711432856,207.9188879239692
2024-05-28 10:18:41,225.7008222548824,1.1053529331986245,240.61164915426883,242.07528848720997,231.98371367823896
2024-05-28 10:18:41,238.71300929118098,1.980380148373547,238.44951701285228,238.9740454974585,240.69953397516275
2024-05-28 10:18:41,231.68598120649241,5.142460222229847,229.00486939684018,230.32865244043597,229.10362230494124
2024-05-28 10:18:41,202.64044060682258,21.41612039658361,212.454013322697,217.24772241593283,196.3404598309188
2024-05-28 10:18:41,157.13929701032916,62.80461900521691,187.3121561361116,195.6536696735401,147.60093247397012
2024-05-28 10:18:41,108.52609382811855,129.30107441374952,155.41483793960344,162.43574188215214,95.85455061855738
2024-05-28 10:18:41,72.98975017946569,202.18465828866763,125.33697230942552,123.62385942734983,58.06736168812087
2024-05-28 10:18:41,60.86042768269776,254.7303952627085,108.57191066898883,93.96756967411062,45.862473520457954
2024-05-28 10:18:41,70.56648117753444,270.899840641062,111.09434863355256,86.41089169460132,58.06616750730746
2024-05-28 10:18:41,90.29897304726862,253.38132843950743,128.16828072303412,101.32432831519353,81.7531533724809
2024-05-28 10:18:41,106.0996311846349,215.77777320765463,147.2431862139631,125.64706890189055,100.92795371543478
2024-05-28 10:18:41,110.26133529104537,169.8932022297339,156.63897801467652,142.49999665541316,106.22112522541885
2024-05-28 10:18:41,104.36953787029535,120.80058532310045,153.12957728075264,143.02473788196656,99.10338873146608
2024-05-28 10:18:41,95.86715289535299,71.78889506518922,142.7892423696442,131.2858732495203,88.56873616654117
2024-05-28 10:18:41,91.62741242108474,30.524218574035842,134.99068765168002,119.19070075532225,83.42586112218785
2024-05-28 10:18:41,93.41350211187863,7.352460209757273,134.77085426167903,116.2007154168392,86.10139196776267
2024-05-28 10:18:41,98.0059081497912,6.47715981064861,139.79936748567354,122.44301112553669,92.35677238135892
2024-05-28 10:18:41,101.03618483965327,19.73126738919073,143.95907067341642,130.58393347407585,96.33970416843505
2024-05-28 10:18:41,100.8283928398539,30.790853814313824,143.56147270089235,133.76887572214775,95.90995511888957
2024-05-28 10:18:41,99.03110177754012,27.21418317008988,140.1226801989013,131.51261504355105,93.48277574806654
2024-05-28 10:18:41,98.15680622898063,10.062920107488878,137.6567809606368,128.39321679703997,92.50277598040651
2024-05-28 10:18:41,98.99636620824792,-7.125325132440244,138.2182326958732,128.34058359630836,93.87857641245036
2024-05-28 10:18:41,100.39978026662568,-8.985843935671598,140.53853145268454,131.16417797213353,95.90107939046062
2024-05-28 10:18:41,101.03142819863145,11.532564963980887,142.35639743555274,134.1608236692328,96.84074089123024
2024-05-28 10:18:41,100.80031566216304,52.2287963242802,142.98103051131892,135.65294417364882,96.7779004302811
2024-05-28 10:18:41,100.5654875981058,106.57892461304648,143.28895144821135,136.11863404247705,96.89667570783669
2024-05-28 10:18:41,100.9298249435201,165.95688179197813,144.02561573693933,136.53165321819466,97.79609715274765
2024-05-28 10:18:41,101.76733898386865,218.94924426945835,145.00357402403003,136.911408880728,99.13171770768338
2024-05-28 10:18:41,102.84456631803039,253.49465449340883,145.90778055847287,136.9111287598836,100.6418140396332
2024-05-28 10:18:41,104.38967192784952,262.8812529676953,147.11196153340384,137.02022565458032,102.75768943070256
2024-05-28 10:18:41,106.7421390259686,250.9941500870513,149.24546530833305,138.32135516711523,105.92916252949398
2024-05-28 10:18:41,109.68097892480417,231.69248396686936,152.2103609715155,141.08899705435138,109.76677158594697
2024-05-28 10:18:41,112.46215982170725,220.6363961573595,155.0641221037778,144.1887590312755,113.24493312901701
2024-05-28 10:18:41,114.53226213764616,224.3618943116556,156.9637241960843,146.14001097331035,115.68956760554016
2024-05-28 10:18:41,116.01093792721291,236.15409718810344,157.98338227235544,146.5953626661586,117.34672105350431
2024-05-28 10:18:41,117.44217693894795,243.62795042573683,158.82806367374178,146.5503824633236,118.95064232826118
2024-05-28 10:18:41,119.22722157918807,240.99502219416956,159.92719052381588,147.19504732071937,120.91467885581123
2024-05-28 10:18:41,121.37234696346903,233.43777794093614,161.08912082833243,148.8524561716548,123.12906778703791
2024-05-28 10:18:41,123.64655360956442,229.77325090570628,161.95668763037912,151.05500693972655,125.43257699246708
2024-05-28 10:18:41,125.79697746703593,232.6512795495754,162.44545722635974,153.26183917176567,127.90610195783393
2024-05-28 10:18:41,127.59833988491383,237.18428090411092,162.61894122151037,155.17939117473006,130.5500441339436
2024-05-28 10:18:41,128.84363847493614,238.00567595500772,162.37196809008543,156.5378687432318,132.911939636423
2024-05-28 10:18:41,129.434546127388,235.29949944237353,161.4769779168047,156.98864622174412,134.31900969269117
2024-05-28 10:18:41,129.52755053292384,233.18305787160654,159.95070954438012,156.47016880030472,134.5456764376383
2024-05-28 10:18:41,129.5272757886993,233.93680172607856,158.249659003902,155.53779256584025,134.13167121899636
2024-05-28 10:18:41,129.8216481486958,235.79229790484777,157.01058862039602,155.02023862042677,133.9218280246759
2024-05-28 10:18:41,130.47465046637768,236.1378105047212,156.57419855953944,155.2239733397904,134.29349310157082
2024-05-28 10:18:41,131.2002919187995,235.00353007148698,156.76586475835896,155.6075582386265,134.85911818415272
2024-05-28 10:18:41,131.62771622359267,234.4098328409161,157.1356970552588,155.36361357479095,134.885669394484
2024-05-28 10:18:41,131.5624623034792,235.2576283563655,157.36382369366663,154.24477418409515,133.96529230192115
2024-05-28 10:18:41,131.02727047171447,236.26444804415124,157.38380898966187,152.69398559687963,132.28928817746228
2024-05-28 10:18:41,130.14144330899325,236.0135233594921,157.1963478788099,151.24282667239896,130.36426275795301
2024-05-28 10:18:41,129.02178647074933,234.9268875984912,156.74150112230748,149.96992053584427,128.58846103106342
2024-05-28 10:18:41,127.77931571969553,234.5113885623872,155.99230629146413,148.55849513485248,127.08304814186765
2024-05-28 10:18:41,126.54187205414671,235.1942651083507,155.050397842735,146.7346997086318,125.76717067187796
2024-05-28 10:18:41,125.42659553663225,235.82829492065179,154.07630258740897,144.56451071190864,124.49276684545282
2024-05-28 10:18:41,124.46922911367326,235.3985232839955,153.1523338294812,142.36397701105497,123.14200318819792
2024-05-28 10:18:41,123.57046200015763,234.09621364793588,152.22183374723207,140.39436822961204,121.65940976939619
2024-05-28 10:18:41,122.5172313915298,230.823638102989,151.14335267924866,138.65018811349498,120.00402734162692
2024-05-28 10:18:41,121.1146318558954,218.8172299172548,149.83437181243715,136.91187508670686,118.11419046300905
2024-05-28 10:18:41,119.37954514186609,186.79947014578255,148.4012309621282,135.01462581289297,116.0312886901481
2024-05-28 10:18:41,117.60514795479287,129.64863920239637,147.08614556302163,133.04915399686615,114.0497594991274
2024-05-28 10:18:41,116.16829139072196,58.891680004497644,146.03979687057569,131.26530878223457,112.58390665038303
2024-05-28 10:18:41,115.24888308277619,-1.184675764855806,145.187017379751,129.85318094515793,111.8198157567209
2024-05-28 10:18:41,114.72008879694123,-30.587999723750208,144.3369063644184,128.88046749876233,111.54136729436914
2024-05-28 10:18:41,114.2569676443277,-27.478426006634727,143.36717859386818,128.33328886155792,111.27855856552667
2024-05-28 10:18:41,113.54827409378451,-7.092544736207605,142.28293045749845,128.09258778775774,110.60664938259312
2024-05-28 10:18:41,112.47201534554327,10.798622054795473,141.15284660170695,127.90394033819037,109.39259281252744
2024-05-28 10:18:41,111.14780069871763,14.69639696582787,140.0445463192187,127.4871908158857,107.86857791785164
2024-05-28 10:18:41,109.86690198105627,6.198231045082291,139.01417055280575,126.72946541797785,106.49162484139472
2024-05-28 10:18:41,108.92327818650016,-4.575878498529584,138.08918603671418,125.75197218656895,105.64734950259152
2024-05-28 10:18:41,108.42949514467108,-8.447346139458741,137.26716129793618,124.81801452745476,105.40934177390513
2024-05-28 10:18:41,108.30961283509403,-4.0053554366120885,136.65219808044637,124.2650163746355,105.61282537449398
2024-05-28 10:18:41,108.48922072378063,4.115106018827483,136.58259714952405,124.48738390426139,106.1684741335766
2024-05-28 10:18:41,109.00818998728363,14.598412406933868,137.41021243701388,125.76163363330694,107.17858954272874
2024-05-28 10:18:41,109.89478447528036,36.22076665072673,139.026489229985,127.90079775172643,108.66927950924249
2024-05-28 10:18:41,110.98964103695548,80.14772310416251,140.70092000104637,130.12302938208637,110.3120992658222
2024-05-28 10:18:41,111.97213646624914,141.84568849966516,141.52994036299995,131.4647348923731,111.54765073988378
2024-05-28 10:18:41,112.60057582003346,194.46984025562472,141.10846734234715,131.48112688909617,112.02317291276742
2024-05-28 10:18:41,112.92477668811844,205.89713729708112,139.78705591918933,130.57333432402075,111.89018633494172
2024-05-28 10:18:41,113.21977815911828,164.00368423188002,138.3129111195313,129.62282187794708,111.65935661871633
2024-05-28 10:18:41,113.68149944257614,86.92563736160244,137.24071456080088,129.28996639057564,111.74811024780249
2024-05-28 10:18:41,114.21365485447434,11.340813298238464,136.64693360466518,129.58688268188905,112.14793452812401
2024-05-28 10:18:41,114.53750149289253,-31.17784668624937,136.32365713784998,130.02582852969354,112.52289197335756
2024-05-28 10:18:41,114.4891729211637,-32.665325686510926,136.16603272143308,130.15166252857196,112.61821478150839
2024-05-28 10:18:41,114.20990013444079,-8.85650868849629,136.3394131445601,129.9739751686144,112.56023474766548
2024-05-28 10:18:41,114.07351996916246,18.13578728196219,137.08320528763738,129.92903813682415,112.77839722229061
2024-05-28 10:18:41,114.38236294826109,38.988828486721474,138.36725310159312,130.42949753822765,113.63638862952845
2024-05-28 10:18:41,115.06263261730179,61.38091855832619,139.75867200085503,131.44355420417057,115.08878260010516
2024-05-28 10:18:41,115.69780964752361,95.943223026063,140.68032626325888,132.53013481027065,116.67990037353069
2024-05-28 10:18:41,115.93182967276368,137.6989517537194,140.84496249418766,133.26801073775383,117.89547349105204
2024-05-28 10:18:41,115.81819000898939,163.72451063381115,140.42697016685833,133.57408217531565,118.50290053058905
2024-05-28 10:18:41,115.7526782060716,154.76686062166897,139.82711911687875,133.6249593838651,118.58648397233029
2024-05-28 10:18:41,116.10114583483515,120.7621833804427,139.34713317951525,133.6270283970968,118.38548494528189
2024-05-28 10:18:41,116.891493303647,98.70538050357813,139.10921782473008,133.7385622703514,118.1904611104783
2024-05-28 10:18:41,117.83276055866915,119.80154211681703,139.19797568287464,134.12267172624746,118.34750637173444
2024-05-28 10:18:41,118.62759345218875,180.10098287928113,139.77534717475612,134.95610924633434,119.20249001447698
2024-05-28 10:18:41,119.24838557053589,244.711557796951,140.99797201316613,136.31623199366902,120.88009090994319
2024-05-28 10:18:41,119.893285639697,278.01186569604283,142.80019832542084,138.03297070169126,123.07573095245634
2024-05-28 10:18:41,120.7202733632998,270.0261432352798,144.7643433529307,139.6792977958939,125.13530929179238
2024-05-28 10:18:41,121.6651854157105,239.38241826022596,146.2307628005288,140.76385964725608,126.43454356745833
2024-05-28 10:18:41,122.50128726388759,215.1369229282093,146.6195053957053,140.98624901197277,126.7611799339493
2024-05-28 10:18:41,123.04131520007104,213.77082441331342,145.7787566555631,140.36275726948506,126.37499291342567
2024-05-28 10:18:41,123.24180775272121,227.9716018132405,144.06973054362336,139.15723432771097,125.69370951719519
2024-05-28 10:18:41,123.10703239226463,232.939335837341,142.04039956842198,137.69536114270852,124.9035625204283
2024-05-28 10:18:41,122.56065023174025,204.5726153554998,139.97988418502084,136.19422844849532,123.87313991211964
2024-05-28 10:18:41,121.48939262451586,138.5469478169049,137.859705591712,134.72075091431955,122.41775204866524
2024-05-28 10:18:41,119.95239489949367,56.51209264976059,135.72853498552018,133.32295789939093,120.597473898577
2024-05-28 10:18:41,118.33600892809734,-8.543068041261021,134.02945380668004,132.2031290543635,118.76234800841883
2024-05-28 10:18:41,117.21059289979742,-36.1298913959158,133.38345059175217,131.66085233251835,117.33654124324204
2024-05-28 10:18:41,116.91439813800174,-29.3405843435015,134.0237807643031,131.77128261985465,116.51895642756769
2024-05-28 10:18:41,117.21898538637403,-6.809643540035473,135.44202270544142,132.16973947533666,116.12387335029788
2024-05-28 10:18:41,117.41594679131128,12.051396759376374,136.59407484145825,132.2305877820089,115.7009767006237
2024-05-28 10:18:41,116.80853702234262,16.664695257355365,136.5483675191968,131.47281855020847,114.85114595079526
2024-05-28 10:18:41,115.2459579938126,7.87867052527026,135.12190389015095,129.86204439317888,113.4799756420011
2024-05-28 10:18:41,113.26949933869646,-4.797890554894379,133.02817719920114,127.83963774367572,111.79935108020061
2024-05-28 10:18:41,111.7237466867824,-10.600981443647377,131.3685730875249,126.07321994308012,110.12744747631025
2024-05-28 10:18:41,111.13872135964928,-6.0037050751612755,130.81167788320207,125.06233474118643,108.70382778525062
2024-05-28 10:18:41,111.38824799356223,2.86722250336815,131.14357379412414,124.84324077577286,107.67126938899867
2024-05-28 10:18:41,111.86918049975644,6.9414167297479334,131.58462090063108,125.00550781031109,107.1657408355907
2024-05-28 10:18:41,111.99805490892759,3.3982184015889745,131.52149152973806,125.02686534098336,107.32042656730533
2024-05-28 10:18:41,111.58874780855116,-2.476084468490096,130.92310410382504,124.65385286511318,108.09659928507816
2024-05-28 10:18:41,110.84948074155149,-4.182847777989895,130.15747923354158,124.00757153921106,109.14710985163345
2024-05-28 10:18:41,110.13380714492634,-1.0959657474217512,129.59117146221766,123.40893277742616,109.99355699679755
2024-05-28 10:18:41,109.7297671294019,2.1442844384346764,129.4070787030543,123.17231231966451,110.41249414696415
2024-05-28 10:18:41,109.77908942869126,1.959565731745005,129.65663163897892,123.48332469797009,110.59068031934792
2024-05-28 10:18:41,110.26125915608455,-0.39274694992009807,130.31911885593343,124.29677495900197,110.86616950532814
2024-05-28 10:18:41,111.00399530205044,-1.408432615675055,131.27134194607675,125.29174010499527,111.35592339631184
2024-05-28 10:18:41,111.74964920985857,0.805980444042251,132.29079091044014,126.04030018049512,111.85591243316854
2024-05-28 10:18:41,112.32850878188616,8.395902702701456,133.21341124934983,126.39484311684289,112.12233557334667
2024-05-28 10:18:41,112.91661246060276,29.00985951505741,134.21273284160446,126.87164927385533,112.35944892096221
2024-05-28 10:18:41,114.23924420233598,73.0097099421752,136.10434671264687,128.8189696753431,113.5940291042974
2024-05-28 10:18:41,117.5918702271414,140.02159297209138,140.5320052472276,134.33893568793684,117.66676861284283
2024-05-28 10:18:41,124.66328774262008,210.8087837005411,149.73450312661996,145.87164891526066,126.81313801093968
2024-05-28 10:18:41,137.15605362181478,258.2219933157215,165.5240843087357,164.98310296319855,142.90439723594423
2024-05-28 10:18:41,156.06895236753562,267.4620691037088,187.51447682789308,190.31000950177074,166.2102611265838
2024-05-28 10:18:41,180.5275599270675,245.39881699596415,211.77363128192556,216.42244248587372,193.92224552452765
2024-05-28 10:18:41,206.75152509755515,213.35530421544604,231.8521994915081,235.94175829265845,219.98575736311122
2024-05-28 10:18:41,228.50330609725964,192.96110071189722,242.31075156448858,244.12958936873034,237.58109584549183
2024-05-28 10:18:41,239.19689369314375,194.17550252950952,241.3842696089395,241.58531429222464,242.3718331422177
2024-05-28 10:18:41,233.8995738643584,209.76585876051135,229.65276636916795,231.66069167504784,232.909745422103
2024-05-28 10:18:41,210.58847075777385,219.73822297006578,207.1002299190236,214.87670172927585,208.7323373295219
2024-05-28 10:18:41,172.14492928064365,205.4395946554929,173.99448758303072,187.5883192409612,170.98310243889026
2024-05-28 10:18:41,128.23734859357486,165.370557955505,135.42259029087265,148.5881136222323,126.34396481456271
2024-05-28 10:18:41,92.96954359626298,120.67848732766089,102.60370057052427,106.47119802970599,87.89064216471732
2024-05-28 10:18:41,77.42925022391873,102.5712494003161,87.02326040204974,77.24165241142968,68.559710358237
2024-05-28 10:18:42,82.77498006824808,128.17325381363122,92.25245903993607,72.6377706117748,72.29741567308521
2024-05-28 10:18:42,99.96355997802304,185.52041081946052,111.1076715799549,90.51964709601575,91.26519656750386
2024-05-28 10:18:42,116.17341821881935,242.466341075937,130.42329542387398,116.14860412235382,111.31784591979624
2024-05-28 10:18:42,122.75282103209162,270.88614068520195,139.50554801420793,132.70792367107185,121.04119611454983
2024-05-28 10:18:42,119.32979946180156,264.73109613336834,136.2711803423789,132.46106938908454,118.02655051201248
2024-05-28 10:18:42,112.04978747500786,239.87994806978733,127.05313832467412,120.48262177087629,108.68212465984553
2024-05-28 10:18:42,107.88553104042023,219.58741358391427,120.56640271492991,108.83786345713904,102.18712891928779
2024-05-28 10:18:42,109.44159785480088,217.55091120234033,120.97385026091479,106.3415254340452,103.24901297173231
2024-05-28 10:18:42,114.04488844893008,230.26850511916155,125.68969612929824,112.42642107497875,109.36046121268846
2024-05-28 10:18:42,117.2632602158157,243.3401749296426,129.23291037545653,119.81564131174854,114.4643052678807
2024-05-28 10:18:42,117.21585530699414,245.52049535058546,128.83585990876236,122.4619474871734,115.07866249528506
2024-05-28 10:18:42,115.70686231414808,237.78372602114266,126.30560701838358,120.6212053244914,112.89635640945691
2024-05-28 10:18:42,115.69279157377915,229.8011994295567,125.08384394013522,118.79932927853913,111.97003566046551
2024-05-28 10:18:42,118.20132012112603,228.94301401549427,126.46278294495187,120.1093248077428,114.25138108386183
2024-05-28 10:18:42,121.80290697363058,233.78768684693642,128.97534429485742,123.5346215768552,118.25559310976594
2024-05-28 10:18:42,124.55697039043469,237.82865410199935,130.75421454175645,126.19548396712025,121.4537899609413
2024-05-28 10:18:42,125.88433488996574,237.44811853234913,131.55612789534734,126.94177523026035,122.98133349664501
2024-05-28 10:18:42,126.54189878578065,234.77852604232976,132.35550989071234,127.03764051802459,123.76098422685484
2024-05-28 10:18:42,127.32021575088386,233.60083156734345,133.6714759863915,127.96717238303569,124.69508345863802
2024-05-28 10:18:42,128.22936624903122,234.6142603542534,134.97285813938092,129.64001322917196,125.54884979729042
2024-05-28 10:18:42,128.8775745428826,235.03538597527256,135.6364586042623,130.9700682694817,125.64306769254317
2024-05-28 10:18:42,129.1933892130288,229.50686680870027,135.85457363280767,131.4664428758436,124.99950745260583
2024-05-28 10:18:42,129.47787514319734,209.07153064822867,136.2588039907861,131.57461852436566,124.32659420554798
2024-05-28 10:18:42,129.89781221132156,164.27332333094674,136.97637371835071,131.66540868637904,124.0948602303639
2024-05-28 10:18:42,130.26415236657823,96.34059087064269,137.525062233087,131.44593962583306,124.11616430096437
2024-05-28 10:18:42,130.3763978985009,24.176511931682583,137.60886176035018,130.68656569729464,124.08185489429626
2024-05-28 10:18:42,130.3639679715062,-25.665173552847925,137.599049115515,130.05190147662293,124.12576983021616
2024-05-28 10:18:42,130.53980375471468,-38.305327142949736,138.02237013542236,130.61028334102366,124.61269998157236
2024-05-28 10:18:42,131.0153813758083,-20.61635642116776,138.79677782708592,132.5388832550474,125.55801769528816
2024-05-28 10:18:42,131.61711104573902,6.324415895548142,139.26868830294234,134.78459527402853,126.58161025198491
2024-05-28 10:18:42,132.17664617763785,26.375112593652492,138.99885123583627,136.210595054999,127.4773688611145
2024-05-28 10:18:42,132.77547441448382,43.59264182400063,138.26367703477553,136.81291810620385,128.55071659853525
2024-05-28 10:18:42,133.6324418157679,77.2252115869121,137.6646322238119,137.545277084878,130.19276561211498
2024-05-28 10:18:42,134.79320703337152,137.9077241999015,137.4341115157449,139.077078796729,132.27366063264498
2024-05-28 10:18:42,136.03266603618965,210.44406476104248,137.34664379433266,141.05081145215362,134.21285810165497
2024-05-28 10:18:42,137.11870881273202,263.66853856988604,137.22966023462143,142.625038814571,135.63748129168667
2024-05-28 10:18:42,138.0757406136927,276.9315296937521,137.25724800870273,143.44718019837626,136.74201298468017
2024-05-28 10:18:42,139.04021332729363,256.3690523080939,137.58605034550231,143.81930234918767,137.88504504951658
2024-05-28 10:18:42,139.90186224392582,227.66550903279258,137.8908824407631,144.0540943552004,138.99638711451854
2024-05-28 10:18:42,140.31373239275905,214.5004431227228,137.57012321088828,144.06660754483042,139.62624070236507
2024-05-28 10:18:42,140.14333608278113,222.01828396287746,136.45275968833667,143.68552659047012,139.55500696080256
2024-05-28 10:18:42,139.7215609324254,237.6852934099402,135.07464063525748,143.0207547751627,139.06258942779507
2024-05-28 10:18:42,139.4680279286532,245.93116295031652,134.13637086030693,142.27522089738312,138.47086367879658
2024-05-28 10:18:42,139.3638348583545,241.9356282511979,133.8054508509575,141.35311995987112,137.64938938560653
2024-05-28 10:18:42,138.95853252489889,232.92907330583,133.64272792861053,139.91001304464297,136.18525807475885
2024-05-28 10:18:42,137.86597477839476,228.25569758536648,133.12671111297252,137.82728290904083,133.96500518165809
2024-05-28 10:18:42,136.14286051257054,228.6807268478848,132.13466207956114,135.5034112107232,131.42588241514076
2024-05-28 10:18:42,134.20091239741183,223.49965923575834,130.93106826968676,133.53064398303744,129.20168120442128
2024-05-28 10:18:42,132.42238142093544,197.29523957415248,129.80056663698724,132.04585012805225,127.55859518465878
2024-05-28 10:18:42,130.8479321798387,142.89386448845949,128.7500402819512,130.50781720382233,126.17655957484611
2024-05-28 10:18:42,129.20703411313627,71.05116910375598,127.54097909317863,128.23648642530497,124.46156341823222
2024-05-28 10:18:42,127.25570181210679,6.252791084742345,125.98251901764955,125.1632253223474,122.0784717167753
2024-05-28 10:18:42,125.06708158914006,-29.688155260349472,124.17615315490569,121.98318390306558,119.22229737620188
2024-05-28 10:18:42,123.00137183887854,-31.661797526264557,122.45790598975393,119.5937482913144,116.43940888817694
2024-05-28 10:18:42,121.44904184145538,-11.962098428497706,121.10648968742039,118.42222717893279,114.23117913163608
2024-05-28 10:18:42,120.5805730436833,10.782547085615054,120.11598916414286,118.18920931456908,112.80000641487382
2024-05-28 10:18:42,120.24554378128795,25.929250214867043,119.24577577031995,118.16565050397224,112.06589578508935
2024-05-28 10:18:42,120.0828817399015,37.66523719604796,118.28742563760197,117.67502038994712,111.79630297091708
2024-05-28 10:18:42,119.78790937556957,56.11534496172963,117.30089880616113,116.51453001479875,111.69216398276674
2024-05-28 10:18:42,119.32827158169574,79.6621304234842,116.62496943207216,115.03017089686455,111.46716753462182
2024-05-28 10:18:42,118.91143296267367,90.51746125812788,116.63175632073079,113.80589297784437,110.97008443371575
2024-05-28 10:18:42,118.74367905569973,72.34213692004792,117.36493141912426,113.21593259509905,110.24297242699183
2024-05-28 10:18:42,118.83176109274618,29.65812764715305,118.37534105458914,113.20269996310346,109.43351082328832
2024-05-28 10:18:42,119.00398156917595,-13.455146383723454,118.99250394256717,113.4171368642508,108.66527539040473
2024-05-28 10:18:42,119.07257548991295,-32.890744839432564,118.83623083454644,113.51007953058846,107.98264380929828
2024-05-28 10:18:42,118.9505451634501,-22.967051350480816,118.07780237570603,113.32725921927384,107.37003942801678
2024-05-28 10:18:42,118.66132931432068,1.0762062829631567,117.22688102144139,112.96082786440385,106.81773398074748
2024-05-28 10:18:42,118.29529165715591,17.132855086036404,116.72114074690008,112.65885107982886,106.37663802382758
2024-05-28 10:18:42,117.92939045329398,14.447304773517159,116.69416292823944,112.60701357326721,106.10187112321933
2024-05-28 10:18:42,117.52334822819827,0.3165020029241728,116.9872621704458,112.76493972023623,105.9283553098056
2024-05-28 10:18:42,116.92848937692138,-9.815236098973099,117.30119190131603,112.96507575388631,105.68331839964536
2024-05-28 10:18:42,116.10219148160925,-8.010118227414543,117.42755169966445,113.18838045657728,105.27630125693611
2024-05-28 10:18:42,115.30892270770345,0.49465352428590437,117.43601429497505,113.67037817864369,104.8297502736934
2024-05-28 10:18:42,114.99616347965377,5.573546905748062,117.62546643653762,114.66638489110481,104.58530363363292
2024-05-28 10:18:42,115.41801831069571,3.4827777202359385,118.22747322687367,116.14310755310245,104.7029908549364
2024-05-28 10:18:42,116.38890785761336,-1.1582580419328725,119.12875986578695,117.74538107581407,105.1165897843967
2024-05-28 10:18:42,117.37045072881251,-2.6589623729269336,119.90772221236745,119.02129613140674,105.51712290266545
2024-05-28 10:18:42,117.79515429614652,-0.5873253243199668,120.18328361043703,119.66831339095735,105.5434555040651
2024-05-28 10:18:42,117.43457195250218,2.587321356381738,119.96292786221585,119.69057146627341,105.11880252076645
2024-05-28 10:18:42,116.5883106333812,9.457700625841852,119.6718509642263,119.44705424026532,104.61038901973272
2024-05-28 10:18:42,115.90903286222363,28.888328457491422,119.83185883268455,119.50529364970376,104.59971008517066
2024-05-28 10:18:42,115.93177254562076,62.92736787237519,120.64313599651858,120.25333493004388,105.4330723589298
2024-05-28 10:18:42,116.66599609531049,95.10815626135631,121.78151784113521,121.48395086364829,106.8846357491612
2024-05-28 10:18:42,117.62294949849718,104.46314713937568,122.59077591417223,122.42170575447311,108.23058864031786
2024-05-28 10:18:42,118.2858511308483,94.399294378042,122.58311163872227,122.40642964125658,108.82834647192274
2024-05-28 10:18:42,118.58060362445576,95.24590764285205,121.86536542183335,121.65268536761226,108.7698529086806
2024-05-28 10:18:42,118.92036228688953,131.71534029619275,121.11234485638161,121.20811365003608,108.9173443341426
2024-05-28 10:18:42,119.86708759502474,195.6009241044506,121.10196607030413,122.07372247366521,110.23178049275175
2024-05-28 10:18:42,121.74305776220692,254.20214523674,122.19522726965862,124.37144511787592,113.04606737214792
2024-05-28 10:18:42,124.44074946829731,279.33489795892496,124.16156404882311,127.30860299067973,116.88745308776089
2024-05-28 10:18:42,127.51214449137727,266.9500069331997,126.44614932652452,129.86447364020214,120.87262906532023
2024-05-28 10:18:42,130.44463212068007,236.1219964822746,128.56218616776312,131.51791437434014,124.27196458500808
2024-05-28 10:18:42,132.8944176818734,213.2025458758212,130.2100532891829,132.3845338410369,126.81245296121837
2024-05-28 10:18:42,134.73348639280297,212.16667871561137,131.15073346799966,132.78768306437223,128.57665997267662
2024-05-28 10:18:42,135.9749412749102,223.9451137498697,131.17285635514958,132.8425079843118,129.6879542932953
2024-05-28 10:18:42,136.68836039582365,224.567563466564,130.24629689082505,132.43040011560882,130.09816141168278
2024-05-28 10:18:42,136.93939087481758,197.67349825858906,128.64102642795172,131.43233290540536,129.6657256462488
2024-05-28 10:18:42,136.77202196638655,150.88185043152927,126.83556850538021,129.94545606134187,128.41517917275914
2024-05-28 10:18:42,136.2345807990735,109.12809456997637,125.24705346303881,128.3100721301398,126.66526315361858
2024-05-28 10:18:42,135.41159043440177,92.0379480877199,123.98794892090193,126.92928493932571,124.8927197217861
2024-05-28 10:18:42,134.46428015860715,98.85199734591487,122.88100503710511,126.05371688367671,123.5220446192319
2024-05-28 10:18:42,133.6695038072066,113.93738161949605,121.70557380453685,125.70565790994905,122.8174245524152
2024-05-28 10:18:42,133.34091868489278,123.18917904416165,120.39969345360424,125.73931035971361,122.84909033111784
2024-05-28 10:18:42,133.59259818645543,123.51465699011953,119.08373204023435,125.94711973858504,123.47619805928178
2024-05-28 10:18:42,134.14648570096202,119.54399060163844,117.97819016315084,126.12003782344723,124.32587773459531
2024-05-28 10:18:42,134.42715241817356,115.89511306740481,117.23577040432984,126.0228693995557,124.80714957507283
2024-05-28 10:18:42,133.93686965069185,114.07563225717197,116.75318965350858,125.41644333552462,124.3222034058814
2024-05-28 10:18:42,132.6353232232112,114.10282044141738,116.20832288045084,124.25411810673904,122.68835989398625
2024-05-28 10:18:42,131.02716323693437,115.80457826523306,115.37310603277886,122.851163360559,120.39969425778017
2024-05-28 10:18:42,129.88501918197653,118.14169793457086,114.36697838400772,121.71948035542609,118.39593833629887
2024-05-28 10:18:42,129.794936068705,119.15529676112988,113.59224031351653,121.18419329599436,117.51514339426154
2024-05-28 10:18:42,130.815454445242,117.81874461195163,113.44917779309904,121.22423980049129,118.0738635602178
2024-05-28 10:18:42,132.4394833915662,115.39914523193498,114.0354121314638,121.66421454537125,119.78252311531126
2024-05-28 10:18:42,133.86765226671642,114.09646623975678,115.01019725813704,122.37325204726005,121.92694666131989
2024-05-28 10:18:42,134.4622005767911,114.48223237745768,115.78251941392446,123.21025755143023,123.7063422864452
2024-05-28 10:18:42,134.09450566794908,115.05833844578406,115.93122584170287,123.89089647996985,124.58158966307116
2024-05-28 10:18:42,133.093074503222,114.47086368760478,115.48296268406779,124.05072340423769,124.42779526177296
2024-05-28 10:18:42,131.87904868288652,113.39755476246879,114.81969723777549,123.48146362510698,123.44967898519177
2024-05-28 10:18:42,130.69784281244452,113.6624198466691,114.37389734771462,122.31366230480792,122.02340124612839
2024-05-28 10:18:42,129.63671292180362,115.8277393548247,114.38011219755893,120.98631442760765,120.5642186130636
2024-05-28 10:18:42,128.7572942406917,118.37069602065745,114.8013135011147,120.01149822830975,119.41447399091916
2024-05-28 10:18:42,128.16868052838637,119.44259089054776,115.45441721047048,119.7412714055112,118.81709120998578
2024-05-28 10:18:42,128.06728620175207,119.15451460644859,116.32104357438162,120.41156392516856,119.04122904827166
2024-05-28 10:18:42,128.8196839980116,119.59117119839479,117.88524453589633,122.44820227169225,120.55911957859999
2024-05-28 10:18:42,131.04144065992423,121.537613851391,121.23250055101747,126.71562471040143,124.11103565747622
2024-05-28 10:18:42,135.6038251561199,120.51883632452343,127.82858748055826,134.53258322815438,130.66748304429515
2024-05-28 10:18:42,143.61736529136945,107.74811708882415,139.12634379340923,147.4636287346773,141.42509525750367
2024-05-28 10:18:42,156.31197565671425,78.16231484413433,156.0071428929798,166.56441493810823,157.62769985228886
2024-05-28 10:18:42,174.36533362307034,38.51398833820449,177.91251257223377,190.78583587695238,179.51352466577544
2024-05-28 10:18:42,196.5270217506961,5.698750219816184,202.012836273834,215.72336709849125,204.53383767030238
2024-05-28 10:18:42,218.72582968930064,-5.142353724814498,223.3368470475186,234.92941434439598,226.99187621822037
2024-05-28 10:18:42,235.24643835738723,7.214825393967855,236.04253324883143,243.65196479863457,240.70251048515712
2024-05-28 10:18:42,241.18722919034585,28.36107020364236,234.72428752722806,241.17348863395085,242.14674919328925
2024-05-28 10:18:42,233.5777169940715,39.155993921630966,215.57943603573463,228.67497286320074,230.32435851519458
2024-05-28 10:18:42,211.2754070886436,30.350474620161716,178.96348606676293,205.54782873123787,204.8188594720999
2024-05-28 10:18:42,176.4422242873146,8.510627224095034,132.62723489693505,170.44805468994807,167.0838515717866
2024-05-28 10:18:42,136.92504636242506,-10.885816773345539,91.07852903472082,127.35092246185842,124.33937461041636
2024-05-28 10:18:42,104.83669321924333,-16.203727764883492,68.58134452055491,88.50017551089437,89.3674545488459
2024-05-28 10:18:42,90.07915876254786,-7.785792399287554,70.34382703681084,68.30069821198417,73.58656341872378
2024-05-28 10:18:42,94.02044435413214,4.14427397048987,89.32706020582987,72.82993845151826,79.28112554103964
2024-05-28 10:18:42,108.92759798076162,9.117657865111768,111.26656644769105,94.75457877859775,98.03864246940196
2024-05-28 10:18:42,123.33418040827509,4.93658054715015,123.79713813181957,118.07944671262727,116.37398665217539
2024-05-28 10:18:42,129.05831392281246,-2.2099539769814314,123.20483590632855,128.83136671345537,124.09030624705227
2024-05-28 10:18:42,125.30112152838974,-5.124675845621821,114.77405180271938,123.75082260562861,119.82853129849778
2024-05-28 10:18:42,117.61362745985048,-2.4558415877891187,107.26592202417136,110.8507940170591,110.37056739129066
2024-05-28 10:18:42,112.79813621590975,1.5180351238169107,106.02348422076224,101.76927123372545,104.37119569191782
2024-05-28 10:18:42,113.67932560094152,2.579471054735862,109.9559821730908,102.3463878678509,105.4848822583763
2024-05-28 10:18:42,117.8313066885388,0.7559117874317458,114.17366725396788,109.27084388729733,110.52789405068663
2024-05-28 10:18:42,120.85484434697445,-1.0129575813498468,115.10469469633554,114.93036064515594,113.73837486261995
2024-05-28 10:18:42,120.66370512265424,-0.9145281481112588,113.20523152081273,114.9890139609225,112.51758898368158
2024-05-28 10:18:42,118.71836663070043,0.13418755047369912,111.38302357989954,111.35971130237911,109.11963012071915
2024-05-28 10:18:42,117.68936500115561,0.46609324821228154,111.60922958275368,108.74030805883604,107.39614866516177
2024-05-28 10:18:42,118.59959194739746,-0.06934306073145347,113.39413723407978,109.47637989144059,108.7333311374244
2024-05-28 10:18:42,120.37004741907877,-0.37830004622112573,115.08206736040215,112.1956826113786,111.40735041963376
2024-05-28 10:18:42,121.59020045951492,0.09431950368318674,115.81851681401122,114.52622228731548,113.19465695102811
2024-05-28 10:18:42,122.04565869320693,1.3997653793726008,115.99266425968575,115.82268783496114,113.67420067812729
2024-05-28 10:18:42,122.43239768023798,6.662615656705107,116.26930985957291,116.95581478449158,113.8965080777253
2024-05-28 10:18:42,123.17646057949862,25.393380301039052,116.79217741664101,118.42699265532137,114.6400379095161
2024-05-28 10:18:42,124.07377172538477,68.54039147537218,117.40905812760582,119.71090647171852,115.71271262415777
2024-05-28 10:18:42,124.92645328575941,135.34529221968393,118.2689618253774,120.39405563998348,116.7603679323879
2024-05-28 10:18:42,125.9585277309727,206.68668976226965,119.77465375246298,121.12262913867974,118.00813445586184
2024-05-28 10:18:42,127.37763720031353,256.29637644012655,121.93326201017231,122.8915217010858,119.85796471294238
2024-05-28 10:18:42,128.86468486054372,269.87244884809814,124.09128512550689,125.66757836645436,122.12412892894358
2024-05-28 10:18:42,129.87409586982412,252.6639945057359,125.52321302418798,128.25741093467084,124.15896574765895
2024-05-28 10:18:42,130.37687225127496,220.08570477040462,126.14806942930763,129.5995299215319,125.7118497275323
2024-05-28 10:18:42,131.00110028184818,183.77648306258263,126.49125883148125,129.82466173793517,127.23522586779566
2024-05-28 10:18:42,132.34818690900553,148.08378682418453,127.02926190820737,129.8793779193875,129.14771036566896
2024-05-28 10:18:42,134.33295084110435,118.33921786082811,127.76949700078616,130.3625960322318,131.09560094585873
2024-05-28 10:18:42,136.31082721054298,107.10594451832382,128.4495835313732,131.04922280554607,132.29843326491613
2024-05-28 10:18:42,137.7810409829091,126.50444206204972,128.92822675174352,131.5374903679996,132.5862752507537
2024-05-28 10:18:42,138.83418076238505,173.8303029445249,129.27612331004482,131.9796437215718,132.76737026754336
2024-05-28 10:18:42,139.88372361188763,228.33156243894024,129.60145157686964,132.84096389535028,133.76731190450644
2024-05-28 10:18:42,141.07190503141618,263.65296813316354,129.936971557734,134.06935611200433,135.5379817319176
2024-05-28 10:18:42,142.07149970332912,262.7580333098877,130.3013710317295,134.9128260366727,137.05785468761619
2024-05-28 10:18:42,142.46015998091136,223.45799027011617,130.73932204304424,134.69769703047513,137.39178908405833
2024-05-28 10:18:42,142.15498255377048,156.39473949387985,131.2027823926614,133.56431797672468,136.53327093264284
2024-05-28 10:18:42,141.43709624098994,81.17760663827903,131.47018308429776,132.28916846220065,135.19042137929677
2024-05-28 10:18:42,140.65464459725982,19.351478841593686,131.3362932035783,131.5215126950404,133.98879283608917
2024-05-28 10:18:42,139.9377041461657,-15.759697563560836,130.88104930485383,131.29476947706308,133.00404436113683
2024-05-28 10:18:42,139.1273704617133,-23.620578705485155,130.4232869662139,131.1303987621027,131.91585130918236
2024-05-28 10:18:42,137.95906629317096,-10.778561767806485,130.18019524277622,130.45374938319273,130.43361552586447
2024-05-28 10:18:42,136.31087444008895,16.617284190966185,130.040831476438,128.95636306084526,128.556848204879
2024-05-28 10:18:42,134.2499783735945,53.18401777000158,129.68875789209355,126.72399460937905,126.52139518395249
2024-05-28 10:18:42,131.93427381497915,91.58049876885305,128.91577500285268,124.14540296181121,124.59686547700757
2024-05-28 10:18:42,129.6048436736169,125.46446270911173,127.8241845031184,121.72540074758491,122.97689601961802
2024-05-28 10:18:42,127.61059594135185,155.28612094762676,126.76623240264148,119.88871401462382,121.78434244013505
2024-05-28 10:18:42,126.24004568531264,185.9725883392442,126.08834076341586,118.7778189312652,121.01251771589587
2024-05-28 10:18:42,125.43679768680488,217.16737212044876,125.85718800264853,118.1406156651615,120.41161913639363
2024-05-28 10:18:42,124.7593572452149,239.53659933648072,125.7723432899902,117.5169745643793,119.58657293404394
2024-05-28 10:18:42,123.73809311453165,241.78601912990192,125.38032448866022,116.64227837772164,118.33098345348444
2024-05-28 10:18:42,122.2977849697813,218.11197654709392,124.42905967158349,115.60838821319089,116.82863266647968
2024-05-28 10:18:42,120.79459256458787,170.31973589122632,123.03057448132665,114.57326881161985,115.47191835691658
2024-05-28 10:18:42,119.64726097382426,110.13638864711162,121.51582836785506,113.42581587653652,114.49171528616073
2024-05-28 10:18:42,118.97662646358577,61.5400313962323,120.19463170088358,111.90687248590443,113.79126506011387
2024-05-28 10:18:42,118.58904077192871,52.60149701264569,119.2505396044754,110.08314333183154,113.13697165006921
2024-05-28 10:18:42,118.22045690003331,95.61122775391472,118.75026699423356,108.5416661563945,112.45754835660532
2024-05-28 10:18:42,117.75040580834145,172.96697215432658,118.64092125279522,107.97690062317791,111.9216212889864
2024-05-28 10:18:42,117.2440784926516,245.7703794391643,118.75899098789502,108.58746476768917,111.76516433092667
2024-05-28 10:18:42,116.86295937522085,280.2280902137798,118.92867531539,109.8822582636101,112.07748312929479
2024-05-28 10:18:42,116.72983632659177,269.2711271496694,119.07891758477136,111.01784772472111,112.71204729680316
2024-05-28 10:18:42,116.83475777736639,231.2401851700592,119.26484507775523,111.34134745675831,113.36731880462291
2024-05-28 10:18:42,117.05699004129123,188.5058736913422,119.60548827248351,110.75665885484199,113.80484164591218
2024-05-28 10:18:42,117.29987122224959,147.83541094463877,120.2194972435792,109.70915363362741,114.06230792181367
2024-05-28 10:18:42,117.6034336123684,101.95385301091007,121.16484650399053,108.82470062471599,114.43051854826471
2024-05-28 10:18:42,118.06819556360472,47.545098752318154,122.3236995597365,108.47050291003518,115.11776294710789
2024-05-28 10:18:42,118.63994985926114,-3.3100795834435877,123.31872332887407,108.55184257582704,115.90402545700067
2024-05-28 10:18:42,119.05636004209826,-31.39610067322706,123.70563108994679,108.68244328172597,116.24387525819053
2024-05-28 10:18:42,119.09566718781224,-28.422497310823978,123.41253936088025,108.61555418802168,115.8353956117165
2024-05-28 10:18:42,118.83171457487894,-5.8713520679028015,122.93432228742198,108.54726970403769,115.04234261638814
2024-05-28 10:18:42,118.56422501610004,13.982516085170372,122.92332455315206,108.8972367600542,114.63052805387247
2024-05-28 10:18:42,118.50859809575674,13.982516085170372,122.92332455315206,108.8972367600542,114.63052805387247
2024-05-28 10:18:42,118.60229522787814,16.68494028646248,123.51535033384664,108.8972367600542,114.63052805387247
2024-05-28 10:18:42,118.64825326623212,7.496553265556855,124.09678824616819,109.75485604916427,115.07125960137412
2024-05-28 10:18:42,118.61837003388176,5.8337340662948725,123.83130572025084,110.69525024577297,116.151031388117
2024-05-28 10:18:42,118.71858372079825,25.72954908287699,122.51579714010832,111.22770415379857,117.23275866582817
2024-05-28 10:18:42,119.13857321690314,59.73264527171871,120.88601619267801,111.28257158373208,117.80409096998088
2024-05-28 10:18:42,119.81060495253776,83.50266525770637,119.97096226673844,111.15622900381281,117.77586952020641
2024-05-28 10:18:42,120.4227072089199,78.10153799380134,120.17590094008466,111.12959680229855,117.41178304760697
2024-05-28 10:18:42,120.64664779137748,48.40299157490499,121.04653781713884,111.28211725603593,117.09320340904469
2024-05-28 10:18:42,120.39065164984069,21.67126870447425,121.79915142701063,111.55666474516339,117.08266267033329
2024-05-28 10:18:42,119.87537529849386,28.743530529150238,121.98075881307322,111.84929848688766,117.38972278018237
2024-05-28 10:18:42,119.47483651000846,80.86823572594867,121.73653649307239,112.10555598562034,117.83003249070354
2024-05-28 10:18:42,119.45910141854773,157.8910875771731,121.590397151474,112.42862049140959,118.22420020354123
2024-05-28 10:18:42,119.8502810834221,219.45856952886533,121.96930647715692,112.98872345350739,118.5478895534944
2024-05-28 10:18:42,120.50280608154473,233.73689172852556,122.86810275711312,113.71656214624831,118.91378428436529
2024-05-28 10:18:42,121.29744491754253,199.28813407983003,123.92730737883223,114.20808331830357,119.44761876065773
2024-05-28 10:18:42,122.22491543646461,140.77729477113246,124.7894816466068,114.11161573702155,120.20966733932394
2024-05-28 10:18:42,123.2878795829628,86.08072910781354,125.34825726082674,113.58341941904608,121.19396887062102
2024-05-28 10:18:42,124.36457758219568,48.31003149097288,125.72091729263418,113.20905066946077,122.29217551246612
2024-05-28 10:18:42,125.2055059741894,25.002620276738362,126.07384111031577,113.43332879411211,123.23540127475657
2024-05-28 10:18:42,125.59461144541667,8.25317836058643,126.45695553183855,114.14683793509204,123.69704185148282
2024-05-28 10:18:42,125.52613623991478,-5.454338511324775,126.74520488932708,114.84039423648173,123.54675911274548
2024-05-28 10:18:42,125.19653600710373,-12.314911306394807,126.70601289110428,115.05715719976348,122.97796972850216
2024-05-28 10:18:42,124.8095954574994,-6.746376211009946,126.0984654451296,114.65838593065256,122.34480778195626
2024-05-28 10:18:42,124.414371795445,9.33234273646813,124.74216021101455,113.76007753909967,121.8666380059641
2024-05-28 10:18:42,123.92464372207033,24.029241065687945,122.61712284670723,112.54633532104336,121.49422662814511
2024-05-28 10:18:42,123.23789226146117,25.224514799801643,120.01023599046155,111.19929192254475,121.0521139816566
2024-05-28 10:18:42,122.30492839638394,12.737651657801328,117.50307117305752,109.93081910518286,120.45859649793054
2024-05-28 10:18:42,121.12305281036355,-1.880883518855475,115.62185277378438,108.9339337686481,119.76734015302908
2024-05-28 10:18:42,119.73013575103853,-7.801456075994199,114.43406074479687,108.2718304528994,119.049090179307
2024-05-28 10:18:42,118.23053205420841,-4.640316479711977,113.58449644465016,107.87856394592576,118.33066764144111
2024-05-28 10:18:42,116.78513721070587,0.4416135394746371,112.73104671601537,107.63746984096188,117.6612910757026
2024-05-28 10:18:42,115.52092796628477,2.1349985918787016,111.8369944147905,107.38454670025037,117.13814970170154
2024-05-28 10:18:42,114.42580019441517,1.1163940628737168,111.04051477758978,106.8863138969539,116.77982949951723
2024-05-28 10:18:42,113.32272896494497,0.3128940645441934,110.35872804258784,105.90950342412738,116.37805512789585
2024-05-28 10:18:42,111.95832880246664,0.3646880791376591,109.57982610452473,104.33760895628578,115.518412522596
2024-05-28 10:18:42,110.18838920694503,-0.018204600195823362,108.44297476540756,102.27687721721688,113.8365479736641
2024-05-28 10:18:42,108.14871924046973,-1.0275801264393263,106.94154862630064,100.13135360679573,111.37360769788488
2024-05-28 10:18:43,106.21189317083774,-1.2165464316594805,105.43586172080566,98.49572953354446,108.69203136232603
2024-05-28 10:18:43,104.70572921690437,0.08664816018491997,104.409800013138,97.79021086881593,106.54033820399512
2024-05-28 10:18:43,103.67894449878051,1.4307233858765835,104.10055188396723,97.92071329517569,105.33863853589334
2024-05-28 10:18:43,102.95249146860372,1.0971230263296876,104.35907968130672,98.30734076180329,104.9704870028013
2024-05-28 10:18:43,102.35832114830794,-0.5207114691358741,104.81062613848897,98.28887491748206,105.00977157375662
2024-05-28 10:18:43,101.93281885641792,-1.398756842629727,105.12295955716328,97.62132546168263,105.09897302994185
2024-05-28 10:18:43,101.91710285593538,-0.5332567260500941,105.18046818260372,96.6973482711324,105.15303334087608
2024-05-28 10:18:43,102.5293686390525,0.848290585936945,105.07466438748784,96.25026771198897,105.26632409395812
2024-05-28 10:18:43,103.67013577290311,1.012393712738884,104.9618464791737,96.71873430681589,105.47219750375986
2024-05-28 10:18:43,104.86967661826883,-0.0681170902636569,104.93162297766956,97.83208702323482,105.67244378608629
2024-05-28 10:18:43,105.60096244366672,-0.8834853511701182,104.98840186129718,98.84904499517681,105.84054023282053
2024-05-28 10:18:43,105.6907130352779,-0.46927414748060625,105.11589349392617,99.24500121137675,106.18972561971084
2024-05-28 10:18:43,105.44368605869552,0.46108503751233876,105.35013283816119,99.19691699203779,107.03126211159828
2024-05-28 10:18:43,105.41791739938904,0.6523060961123897,105.87736394707359,99.50163475891726,108.53223374538602
2024-05-28 10:18:43,106.13827129978888,-0.024343557826830824,107.18764945517586,101.1636773057243,110.74720336699043
2024-05-28 10:18:43,108.0395900925964,-0.567785273283223,110.20026039659965,105.11110005762882,113.94714864180105
2024-05-28 10:18:43,111.73303673122422,-0.29165209623533467,116.25879039497525,112.32882925650803,119.0207323785145
2024-05-28 10:18:43,118.46378705266407,0.33220286746455946,126.92919828030027,124.3329333080391,127.77322914324499
2024-05-28 10:18:43,130.25803723058687,0.6834401952743081,143.43369571126752,143.15058577105373,142.69701241484975
2024-05-28 10:18:43,149.01771101070577,2.4590740258512147,165.64157661954565,169.56837852100355,165.36394182688343
2024-05-28 10:18:43,174.52374632400327,11.652472856803698,191.07928475887854,200.32261197692833,193.73773681293412
2024-05-28 10:18:43,202.753388158077,35.82631490756747,214.72862629229215,227.7563097460128,221.2279703635696
2024-05-28 10:18:43,226.22529725030148,74.5257264802894,229.86162927429325,243.81103759056484,239.72428912729234
2024-05-28 10:18:43,236.3844453865938,111.40113573331332,229.63605672415554,244.29107055304596,243.87247459261602
2024-05-28 10:18:43,226.68217738972695,121.72348214692606,209.53922857645003,228.41386825595393,231.90443011445467
2024-05-28 10:18:43,195.7272031057066,93.17533361424087,170.77076857528237,196.09895152104622,203.92897874234728
2024-05-28 10:18:43,149.9308035436354,38.902286122338765,122.66445270775937,149.53949311249252,162.7658015666372
2024-05-28 10:18:43,103.04039022107959,-11.578689131803493,80.59126789612982,98.05832835172396,117.08430057228605
2024-05-28 10:18:43,70.37423276179629,-34.25185231977339,58.54465359167661,57.72641925731149,80.53610690014057
2024-05-28 10:18:43,60.458581194847696,-25.702705413136428,61.04205767617434,42.50824724482389,64.56925104756705
2024-05-28 10:18:43,70.33874388440456,-1.824758420743409,80.61246232760548,54.289627754585695,70.82291051789424
2024-05-28 10:18:43,88.28599306366885,15.92371456594787,102.8998867826143,80.95906808680787,90.01198193202804
2024-05-28 10:18:43,101.70909034646067,15.975536052832544,115.63750857176127,104.28493995076771,108.11279044695844
2024-05-28 10:18:43,104.44999760801514,3.0574452425124243,115.24832477006791,111.56155204682237,115.02317583785083
2024-05-28 10:18:43,98.784369028989,-8.719337108455447,106.98343123307072,102.7752427306295,109.83923744167384
2024-05-28 10:18:43,91.70562618718664,-9.539233185936645,99.36894764170694,88.58067630282378,99.66583082355412
2024-05-28 10:18:43,88.97386331201808,-1.624663094561925,97.65596387105901,80.99732759338617,93.24499190272346
2024-05-28 10:18:43,91.39707773616894,6.029981762178656,101.09978600775204,84.24929074653629,94.31502591728717
2024-05-28 10:18:43,95.58450529628651,10.409149952311788,105.33276521892998,93.05709472322545,99.86245459378854
2024-05-28 10:18:43,97.77877498242589,21.004111531079282,106.91245019642514,99.08457704104569,104.24602749390527
2024-05-28 10:18:43,97.11936898346715,50.62811650024318,105.86401652748958,98.8109430874332,104.78150457342822
2024-05-28 10:18:43,95.64912134363801,97.45219170176544,104.55565807934374,95.38487016803573,103.3421023500921
2024-05-28 10:18:43,95.66645295355632,138.32866060071873,104.84237484853419,93.80559683193093,103.16493544543036
2024-05-28 10:18:43,97.43592587836558,144.39616385751935,106.52789945799225,95.52060900396043,105.05858908825488
2024-05-28 10:18:43,99.38997170913456,105.9197822957219,108.1778522256741,98.00818243007436,107.05432398218353
2024-05-28 10:18:43,100.03199176834124,42.52708273066103,108.80769543768137,98.59294679131663,107.1135663771987
2024-05-28 10:18:43,99.24457748744379,-10.09754362080416,108.58101337035865,97.40472343520511,105.33341628274493
2024-05-28 10:18:43,97.94945273237758,-23.772563504613366,108.21792264635572,96.4903250301076,103.41750963400038
2024-05-28 10:18:43,97.02540975073568,6.6416651651525225,108.17390317667625,97.07364102423153,102.66627488301518
2024-05-28 10:18:43,96.79124902754432,62.88999905843252,108.47842084746395,98.58229308463926,103.05987454362567
2024-05-28 10:18:43,97.26336186278687,115.62470481082475,109.08789760155543,100.08545237190398,104.09515918990718
2024-05-28 10:18:43,98.45919972564714,142.3208409903298,110.07138804887587,101.66122124313561,105.76560716096576
2024-05-28 10:18:43,100.2794320549332,139.90807898707533,111.40701468760315,103.86404127072656,108.30754502190923
2024-05-28 10:18:43,102.31397497441382,122.97399252636106,112.83850901771869,106.43779261914752,111.37296020453286
2024-05-28 10:18:43,104.05098072379411,109.63220485839055,114.10859988722095,108.35522326106522,114.06494740764671
2024-05-28 10:18:43,105.32896381047881,107.8875387284105,115.2385667092918,109.13787012706932,115.85617853656433
2024-05-28 10:18:43,106.44660166484277,113.5204185755239,116.44108275888549,109.55643143085643,117.09763742075594
2024-05-28 10:18:43,107.75491313009884,118.34669617280056,117.78950514543679,110.7257237459181,118.43731656185811
2024-05-28 10:18:43,109.2478583535951,118.68065830070543,119.08381728788292,112.77295374501037,119.97862921543157
2024-05-28 10:18:43,110.65996187336464,116.49732673829446,120.07921799126586,114.75185968515248,121.30051490620212
2024-05-28 10:18:43,111.87555176899824,115.00873122540972,120.7628910183195,115.81576186908333,122.2020440258059
2024-05-28 10:18:43,113.06879568088802,115.10882647955476,121.3096965408054,116.12863972087915,123.06481015357227
2024-05-28 10:18:43,114.4372449372506,115.78144376684038,121.82081047030177,116.50943164454276,124.3667179177659
2024-05-28 10:18:43,115.94076245450668,116.21237659035168,122.24152170799022,117.46323322482867,126.05623044529086
2024-05-28 10:18:43,117.35977684355323,116.46514670877016,122.52707004271102,118.80456727835374,127.58913526251813
2024-05-28 10:18:43,118.53416251256772,116.6222781037176,122.76131934771169,120.08813622986617,128.53340542309053
2024-05-28 10:18:43,119.47524233847349,116.3460898699058,123.06788942052012,121.09323276051921,128.990188506518
2024-05-28 10:18:43,120.25187707182371,115.5575960943314,123.45977067318036,121.80286404983609,129.36488372448216
2024-05-28 10:18:43,120.81685803150593,114.91647107965676,123.81010595838671,122.12545786571634,129.8276188549128
2024-05-28 10:18:43,120.97011521671385,115.12021917505417,123.93520225229386,121.86478933779853,130.12932161437956
2024-05-28 10:18:43,120.49517823430821,115.95652946187433,123.66192518488346,120.97745065895633,129.92277058582894
2024-05-28 10:18:43,119.36704100181443,116.5092071101932,122.86121617937411,119.72262199514815,129.12751018574167
2024-05-28 10:18:43,117.8467311731456,116.30613068962478,121.51993276936193,118.44768315427255,127.94308457227957
2024-05-28 10:18:43,116.32468120085132,115.88751645100704,119.80792030611687,117.26122781478094,126.62366914126511
2024-05-28 10:18:43,115.036401500795,116.05375273251315,118.0365589882319,116.02386847130349,125.34808795527069
2024-05-28 10:18:43,113.93113121945466,116.80735250000046,116.51204987283413,114.62887477654854,124.2462779223332
2024-05-28 10:18:43,112.77656807686807,117.37162256123476,115.37030464895616,113.11679082149467,123.3666072186205
2024-05-28 10:18:43,111.35589035809508,117.1995345066266,114.50261160984324,111.46721904459736,122.53879935513544
2024-05-28 10:18:43,109.6243165035195,116.34165892055888,113.64605739601592,109.47434914441538,121.4032713299061
2024-05-28 10:18:43,107.76510923230622,113.72578910191484,112.58163394922279,106.99333839803808,119.72242910290271
2024-05-28 10:18:43,106.09949938461187,104.91055557568878,111.28139116410944,104.23355519683399,117.63962524182824
2024-05-28 10:18:43,104.8549393737982,84.02899188873127,109.8899377990782,101.67312791066561,115.54057860450584
2024-05-28 10:18:43,103.92808346080538,50.74524024924262,108.56173058268729,99.66238489055769,113.63268411019028
2024-05-28 10:18:43,102.88207628509655,14.431218469876404,107.30518113989018,98.1164822428011,111.67709400338175
2024-05-28 10:18:43,101.27177848465276,-11.232631223292433,106.00117604528789,96.58988917610485,109.18774256591752
2024-05-28 10:18:43,99.03992030394087,-18.440990948014882,104.60204055814415,94.71809737112434,105.9834185533267
2024-05-28 10:18:43,96.61687325404858,-9.7237254162997,103.2974376092852,92.67103352823953,102.57759192423539
2024-05-28 10:18:43,94.6581889920496,6.936526276721373,102.42834992388802,91.14980064629376,99.97163553587801
2024-05-28 10:18:43,93.66424823193006,26.229573873057156,102.21835553763346,90.86505849565155,98.98920076062161
2024-05-28 10:18:43,93.74613050995451,48.43268256770067,102.6100594035651,91.97673722244883,99.71907884900945
2024-05-28 10:18:43,94.63989263043553,75.0999669764572,103.33158017954914,93.96917691925363,101.49801059116673
2024-05-28 10:18:43,95.87419153263801,103.39336670757024,104.05389287597211,95.96577540348929,103.37292375371435
2024-05-28 10:18:43,96.92597011364172,125.64664208065979,104.50766168363673,97.17080956959363,104.62594043756235
2024-05-28 10:18:43,97.37505742220917,134.65836857989825,104.58211610891513,97.21461465596755,105.05005769137661
2024-05-28 10:18:43,97.15764442233504,129.68674840168006,104.42708936265572,96.35864003404929,104.95223407440602
2024-05-28 10:18:43,96.71832885946104,117.74538729658295,104.42348775926098,95.44351952389786,104.91063161822109
2024-05-28 10:18:43,96.71705784922753,108.76542213068838,104.89553138090476,95.40035456384754,105.33778434106989
2024-05-28 10:18:43,97.46570661008673,108.35159283949358,105.77929384966735,96.54827683900794,106.1456402453468
2024-05-28 10:18:43,98.70688101722091,114.23599316321558,106.66347784067246,98.33522237954685,106.85684103596468
2024-05-28 10:18:43,99.92132968210218,119.47444203285606,107.20997575968318,99.83751249384201,107.07097482457188
2024-05-28 10:18:43,100.7263309851709,119.2038634252411,107.46503123458052,100.51602505141452,106.7732656038797
2024-05-28 10:18:43,100.99310907945944,114.54295591989467,107.7245337418489,100.48921973377125,106.15483858038125
2024-05-28 10:18:43,100.74575143970424,110.4094746283017,108.14861135263475,100.18556497208404,105.20729062372021
2024-05-28 10:18:43,100.0490119675689,110.2440713216615,108.52590680981453,99.86882256670098,103.61558727395646
2024-05-28 10:18:43,98.96505074941724,113.30495368640695,108.39721610388132,99.49235566927285,101.10040033348633
2024-05-28 10:18:43,97.56860314687653,116.67807248777652,107.46647189301109,98.89724801413092,97.85943143047547
2024-05-28 10:18:43,96.00494116655021,118.72564727952489,105.95055613505468,98.09460463293885,94.66932542885714
2024-05-28 10:18:43,94.54677172311311,119.85013900630408,104.4896627174896,97.36688211376962,92.5135853030981
2024-05-28 10:18:43,93.56735138668168,120.64758028852238,103.68693286842782,97.10878592023647,92.0107826187289
2024-05-28 10:18:43,93.39171740311677,120.6770840849979,103.72845959580265,97.5712735232995,93.11371514687023
2024-05-28 10:18:43,94.11973097370435,119.36593153687352,104.35297629111821,98.71218715844496,95.29814835756864
2024-05-28 10:18:43,95.58698502771749,117.28220876590503,105.10322777564225,100.23404207900676,97.99592802096981
2024-05-28 10:18:43,97.4973052053423,115.78105452157881,105.6771897382543,101.78918731048783,100.86171372953677
2024-05-28 10:18:43,99.56336176100123,115.5350043816004,106.1513682657909,103.2012272684643,103.7115383878837
2024-05-28 10:18:43,101.53449580003313,115.93546607342799,106.85293742911348,104.49421338076748,106.3105912093392
2024-05-28 10:18:43,103.2161456291608,116.0509140818543,107.94936809313745,105.74951198710673,108.30922437503406
2024-05-28 10:18:43,104.58680508839697,115.85719105461492,109.22327262877462,107.02526274880518,109.46783893441543
2024-05-28 10:18:43,105.87064148072587,116.52008138134958,110.35040341221006,108.40261425245899,109.96547841078326
2024-05-28 10:18:43,107.38308364993398,119.8215317902004,111.33121512012904,109.99208910480178,110.38668828551046
2024-05-28 10:18:43,109.24857304303629,126.90337751178689,112.51005350040147,111.84292945523865,111.29916073210214
2024-05-28 10:18:43,111.27312982255543,136.2491729098227,114.15600254119862,113.86659555382944,112.82631752487048
2024-05-28 10:18:43,113.07959768439156,141.95078356955494,116.06591012772249,115.82380999295471,114.58041251018864
2024-05-28 10:18:43,114.33678167739578,134.63381288457478,117.56632721217227,117.35149496201784,115.8964013319742
2024-05-28 10:18:43,114.88219731412309,107.06224221529278,117.91822110100384,118.0459667415852,116.14494520802153
2024-05-28 10:18:43,114.7097418531557,62.05775655552317,116.82873258084088,117.621771893842,115.01652419326372
2024-05-28 10:18:43,113.91927901222772,14.582817807581598,114.69315281687403,116.09473800740842,112.69430424812883
2024-05-28 10:18:43,112.70669404561555,-17.016762103616806,112.38283806525685,113.86000516577633,109.80847840834342
2024-05-28 10:18:43,111.35804340818328,-23.773290987381703,110.72910457826404,111.5424188935181,107.16911477602284
2024-05-28 10:18:43,110.16197905455321,-10.879745040022886,110.05853410097825,109.66898997599625,105.3997822082767
2024-05-28 10:18:43,109.2763069382098,9.393023141736773,110.08673985786854,108.40091638812993,104.6430151616041
2024-05-28 10:18:43,108.68824588201372,29.063462319737273,110.22369202612325,107.53692694121641,104.54467746025438
2024-05-28 10:18:43,108.31726208633518,49.09281820288176,110.05282610210476,106.80153080974074,104.61172977833152
2024-05-28 10:18:43,108.14970076725287,73.82688929667067,109.629369943976,106.19269835388512,104.67346024000223
2024-05-28 10:18:43,108.23693123235896,102.36141220298775,109.36798653546826,106.00500495762412,104.97692038106993
2024-05-28 10:18:43,108.52257603539428,126.38949339527028,109.6036177690574,106.39343567612019,105.7990087512472
2024-05-28 10:18:43,108.72578155619948,136.58018597218216,110.22405180618823,106.96353411705903,106.99980692129107
2024-05-28 10:18:43,108.52382116601635,130.98838336701357,110.73954352813884,106.9947778145078,108.0045668513791
2024-05-28 10:18:43,107.9107157524673,117.42322800741279,110.72331330653749,106.14457402416994,108.23999069422995
2024-05-28 10:18:43,107.3461990445108,107.45441053963333,110.1946675230991,104.84971374192497,107.630548293059
2024-05-28 10:18:43,107.48633479672259,107.37088659590428,109.60215959227493,103.98419386848718,106.72507453532091
2024-05-28 10:18:43,108.67731298342366,114.20067605105254,109.45119740372441,104.12425536355099,106.31344771796086
2024-05-28 10:18:43,110.65476926139851,120.04998142007454,109.92374649970243,105.10734636864755,106.83511294650147
2024-05-28 10:18:43,112.74495448814912,120.00503251321963,110.80337763891526,106.2353374489834,108.08276137558504
2024-05-28 10:18:43,114.36446978371085,115.81339563032904,111.6941632663919,106.87894007456329,109.40302929431176
2024-05-28 10:18:43,115.33793886583624,112.59850841371778,112.26398655762088,106.94041053933735,110.17264070805118
2024-05-28 10:18:43,115.83056428111804,113.16161046289102,112.34160340324404,106.8418867835915,110.1981933230362
2024-05-28 10:18:43,116.1000426820675,115.97429987997626,111.94586308076306,107.14441401321973,109.79825532634297
2024-05-28 10:18:43,116.33604924089896,117.91552032857007,111.33352719407519,108.14077599773083,109.55805995003946
2024-05-28 10:18:43,116.64615424886162,117.73843927110812,110.96548282960968,109.67784724043494,109.96046638298672
2024-05-28 10:18:43,117.08959917345503,116.57541213458194,111.27475865652252,111.25977423239964,111.12406225422556
2024-05-28 10:18:43,117.68560570387069,115.90090307603802,112.36414895510319,112.36160241244332,112.79678788148271
2024-05-28 10:18:43,118.42098226734839,115.91751018556452,113.95317417436844,112.81104838297253,114.62854021841152
2024-05-28 10:18:43,119.34138753236212,115.95008905178703,115.77065601374233,113.07569887647615,116.5623637035848
2024-05-28 10:18:43,120.78147621176036,115.69017080168256,118.23232997185504,114.40501818601399,119.13251162831064
2024-05-28 10:18:43,123.63815368690979,115.49964063860376,122.88390121038665,118.82558197370834,123.58847035373934
2024-05-28 10:18:43,129.43903984569909,115.68476830097273,132.02901976854008,128.8412633208449,131.80447393646355
2024-05-28 10:18:43,140.01050927328043,116.04497593528924,147.48735940868366,146.5540007623442,145.79157258829713
2024-05-28 10:18:43,156.70548258911265,116.29910642169278,169.1732863279558,171.97734952607055,166.49535290968817
2024-05-28 10:18:43,179.2077501879271,116.5193422865417,194.3331272372421,201.21598187174905,192.0404792935581
2024-05-28 10:18:43,204.3771560503329,116.5443347855266,217.92292137712414,226.81176738563227,217.03263472559013
2024-05-28 10:18:43,226.4310687638482,114.41055906406392,234.1133447339214,241.65896071230725,234.7675085097481
2024-05-28 10:18:43,238.98494845063504,105.44400387937097,237.95908959139655,243.2647967813853,240.92322224749697
2024-05-28 10:18:43,237.18301531838853,84.7645569991571,226.12073776808583,233.14713243031431,234.4853128601061
2024-05-28 10:18:43,218.56965504358146,53.23264388367221,197.56949302861702,212.01065880064138,215.21540022846412
2024-05-28 10:18:43,184.34779496941488,21.009430179374043,155.97423395104786,178.26085397584706,182.8745811693761
2024-05-28 10:18:43,141.75073808089778,2.3454579352099527,111.80842386967291,133.84377336460884,141.24357724885397
2024-05-28 10:18:43,103.72477135117714,3.9347140962416356,79.50637784748662,89.94468233758411,101.32670687611945
2024-05-28 10:18:43,82.85359440221299,18.130680279273673,69.37314726165533,62.845131543139246,76.93719209007612
2024-05-28 10:18:43,83.42237103088932,29.074955499354832,80.63780992677317,62.14124372561048,75.26247396200048
2024-05-28 10:18:43,98.78224633779134,25.997421124236126,101.9723282961352,82.93774275843077,91.48559053660217
2024-05-28 10:18:43,116.25351766693014,10.743362387722255,119.1242907508977,109.08147524119514,112.18915962797104
2024-05-28 10:18:43,125.32426550119226,-5.804001713567369,123.69526513171965,124.1391693140309,124.30028528446816
2024-05-28 10:18:43,123.26919151127451,-13.019911092922413,117.01647945763156,121.66862278264493,122.91017095692354
2024-05-28 10:18:43,115.06750163391362,-6.861602275105317,107.15131191819675,107.92009375446122,112.96741778101087
2024-05-28 10:18:43,108.45246399767822,11.988786300053452,101.9343003355208,95.55210654539118,104.15860110250242
2024-05-28 10:18:43,107.95404164746513,44.51429665745183,103.5123121867386,93.37144675236075,103.04643089017546
2024-05-28 10:18:43,112.3337549996604,93.15239497298627,108.24815009838106,100.34003960339965,108.6869956328354
2024-05-28 10:18:43,116.99009414444083,151.42799402647753,111.20040941410124,108.50412291816049,115.03451545706116
2024-05-28 10:18:43,118.60820649092716,196.77429923027952,110.64207353783678,111.31602353671225,117.29709980955137
2024-05-28 10:18:43,117.6102233234243,200.76031055255677,108.65652838398664,108.982811723153,115.86841458568486
2024-05-28 10:18:43,116.64097108390953,151.65656253704597,108.0804914517347,106.29255514543087,114.45175952591129
2024-05-28 10:18:43,117.39649667093305,68.56154084453922,109.51250363243048,106.57908439138174,115.35072937955016
2024-05-28 10:18:43,119.241131456419,-8.172128391671743,111.30464452024866,108.81585065721953,117.40560360974776
2024-05-28 10:18:43,120.55075908417885,-44.335932772831576,111.82184020736777,110.12861039995246,118.21472737913463
2024-05-28 10:18:43,120.7435589787668,-34.547286220993534,111.11237518761256,109.6459848023913,117.26364997783874
2024-05-28 10:18:43,120.68193041708092,-0.9541418172785933,110.45416979568073,109.0329281246792,116.26338723844809
2024-05-28 10:18:43,121.38821761148385,30.70811142367,110.84299299308871,109.90063127257613,116.89800822546907
2024-05-28 10:18:43,122.88368766417113,55.171475574301674,112.24460944090556,111.88239015963285,119.05246950862103
2024-05-28 10:18:43,124.39322684351335,87.69802483111222,114.0201540135801,113.50893439807973,121.35089202129213
2024-05-28 10:18:43,125.33005284604647,140.8780804247395,115.60703966435113,114.17031579633692,122.81077101283167
2024-05-28 10:18:43,125.79363777851125,205.07127822860932,116.74695071359305,114.54878305976752,123.53553526301316
2024-05-28 10:18:43,126.24297416829064,254.19418606483188,117.43017517501175,115.42856807845125,124.08757406516622
2024-05-28 10:18:43,127.023670753788,269.107719531269,117.92809854819,116.8256454166789,124.76740606909678
2024-05-28 10:18:43,128.30368123380939,253.78165147776426,118.79550672425307,118.44442427657962,125.64882244733896
2024-05-28 10:18:43,130.17646933413326,230.0826131425086,120.502768895212,120.40282528029935,126.91231817195181
2024-05-28 10:18:43,132.5175845885831,218.05645219340096,122.86691773260225,122.96952144624929,128.70928252955025
2024-05-28 10:18:43,134.80395682115494,218.54126673400197,124.97207814015921,125.75891587599465,130.72564174119412
2024-05-28 10:18:43,136.3869371955315,211.48277944264498,125.89151318218443,127.76186571758397,132.25637431573392
2024-05-28 10:18:43,137.09546870802208,173.54081581354478,125.54231920723443,128.36697378525753,132.92764365329685
2024-05-28 10:18:43,137.44967618428623,102.41633062748754,124.72969683347964,128.05066490416894,133.1983578694822
2024-05-28 10:18:43,138.14309506594705,23.69100104308114,124.34140233857146,127.85069472843908,133.9258533952729
2024-05-28 10:18:43,139.33780772692742,-28.931691667710165,124.57285636925155,128.31042491149128,135.42393561828388
2024-05-28 10:18:43,140.53206303693432,-39.9450930562783,124.89717180420712,129.09603127769586,137.07817177119313
2024-05-28 10:18:43,141.09234080127246,-20.179251665987394,124.6406287129709,129.54255719537048,137.93374793698845
2024-05-28 10:18:43,140.83829634138243,5.901931194391466,123.53352178044865,129.36862331455754,137.5763348349811
2024-05-28 10:18:43,140.08637730995048,18.645192440966945,121.82423738042628,128.7952426220746,136.38794145605365
2024-05-28 10:18:43,139.22513953449123,13.558958837974176,120.03167274520591,128.1105926794977,135.06408712165705
2024-05-28 10:18:43,138.3942814067099,-0.2652275774781805,118.63621261284358,127.33163099860047,134.0612718200114
2024-05-28 10:18:43,137.57346298296483,-9.847056492977426,117.87410850373233,126.34808965579762,133.49092590868722
2024-05-28 10:18:43,136.80337086003783,-8.704439672145922,117.64151839110744,125.25051795998803,133.28477154256075
2024-05-28 10:18:43,136.17065281200817,-0.416343128896283,117.53871490544844,124.3549350753848,133.24379621941787
2024-05-28 10:18:43,135.62025610268262,7.353210362177578,117.0920466450594,123.88746020439464,132.99463528379437
2024-05-28 10:18:43,134.93397557177488,12.17282847570004,116.0684777767354,123.7360047099451,132.147479341503
2024-05-28 10:18:43,133.9405238672699,18.313007084292167,114.6728156983961,123.56118366269567,130.62690469520453
2024-05-28 10:18:43,132.6382296450332,28.04100490504388,113.40376460963262,123.06792152191947,128.73789439311554
2024-05-28 10:18:43,131.04389808260802,35.154650097025566,112.58886432454959,122.08564746494895,126.7896823946022
2024-05-28 10:18:43,129.04756502384456,30.928988630201097,112.0307967500599,120.49691828518954,124.7582476089096
2024-05-28 10:18:43,126.57554323111835,14.856735494390561,111.20697604544463,118.297301539831,122.44526343941997
2024-05-28 10:18:43,123.86198039010648,-3.5130520201452384,109.85524668237385,115.75481742351259,119.86435257954777
2024-05-28 10:18:43,121.42148941309216,-13.038940341708008,108.29530891895624,113.36305580625485,117.32186786495498
2024-05-28 10:18:43,119.70931543177173,-10.174909252938129,107.1392337804753,111.51482523762094,115.15737050270835
2024-05-28 10:18:43,118.79415195957763,-0.696221258438645,106.70106666752103,110.17325954189091,113.48970026122441
2024-05-28 10:18:43,118.30102429158481,6.288828135361565,106.6728003212957,108.88488475266577,112.19380826200391
2024-05-28 10:18:43,117.68066442199739,6.017878253740414,106.3694951688797,107.21833612384569,111.06916603964083
2024-05-28 10:18:43,116.62275362415826,0.8720262653587321,105.32295073417995,105.22991070517404,110.00076140856541
2024-05-28 10:18:43,115.24435768060842,-3.33823389120382,103.67008029196278,103.42253985927374,108.95791378813338
2024-05-28 10:18:43,113.89126470788295,-3.2668058617646403,102.035795658924,102.26675270264609,107.90776833141368
2024-05-28 10:18:43,112.82592414799288,-0.36692663702809275,101.09456018835247,101.87186742040409,106.83775576397622
2024-05-28 10:18:43,112.12136336492331,1.7864771175999095,101.12094326582147,102.05347449424302,105.88058205032327
2024-05-28 10:18:43,111.73588296530842,1.4906634852770821,101.78733981553913,102.51890414320606,105.31166777580657
2024-05-28 10:18:43,111.57626284714362,-0.032888323874419534,102.42035289360062,102.97374064253893,105.32374145419293
2024-05-28 10:18:43,111.51205227131246,-0.8226457802602277,102.56325820284579,103.23730623202661,105.80489897226278
2024-05-28 10:18:43,111.42877592577584,-0.4334156807330307,102.29352820616664,103.39045222162207,106.39187944226909
2024-05-28 10:18:43,111.31871162100087,0.1599183605683095,102.00393393366548,103.76537786926967,106.77916363108415
2024-05-28 10:18:43,111.29648381389276,0.18945856325687213,101.98689234526907,104.66076693978145,106.98881210234804
2024-05-28 10:18:43,111.50137924493781,-0.0810352997260554,102.29209466201362,106.00947856991598,107.32789407891865
2024-05-28 10:18:43,111.99661586893343,-0.0751243186190441,102.87904945977758,107.35302563939587,108.05176611448907
2024-05-28 10:18:43,112.73760116912428,0.1822144873396815,103.75961154841603,108.16334189648916,109.05476023809271
2024-05-28 10:18:43,113.55076585553222,0.2354924799679067,104.96883341420728,108.22691406815602,109.9129625822152
2024-05-28 10:18:43,114.16316794163409,0.18329097280589843,106.44726835863437,107.80889935140736,110.25754278067825
2024-05-28 10:18:43,114.41724212828196,2.0564290165964,107.96674627070465,107.48604919695495,110.11634697198808
2024-05-28 10:18:43,114.48444290859165,12.003517291234617,109.1845030768984,107.75032748537564,109.88706021119414
2024-05-28 10:18:43,114.71443476298899,40.49511186871972,109.8335808186435,108.68523371140014,109.98624728202901
2024-05-28 10:18:43,115.26152316273627,94.65774319070196,109.93572390429526,109.96863451918902,110.55972918591817
2024-05-28 10:18:43,115.97687854879796,166.46841779804225,109.83537038619066,111.13692096512632,111.50413566044557
2024-05-28 10:18:43,116.62560452915686,232.21642119328126,109.95327266699137,111.8416737687728,112.63660005634185
2024-05-28 10:18:43,117.09646884550074,268.34750422048126,110.46841575713069,111.97851655293957,113.79351573219415
2024-05-28 10:18:43,117.44290479303977,268.5461808327246,111.26516143103069,111.736060533582,114.88201314298425
2024-05-28 10:18:43,117.8032911795494,246.2705810611217,112.13942656523069,111.50473248216174,115.92001473618902
2024-05-28 10:18:43,118.25670982158373,222.40791831122914,112.94212103054542,111.57913016258205,116.97567882415488
2024-05-28 10:18:43,118.72178676698364,208.37927259906405,113.54086210845378,111.89492232793792,118.00857346929108
2024-05-28 10:18:44,119.02080979957263,197.0015158273853,113.79246486637656,112.10474710584795,118.790683431583
2024-05-28 10:18:44,119.05738393847828,170.39315299296746,113.63318665111997,111.92267895753179,119.04880149099577
2024-05-28 10:18:44,118.93621765786659,121.53623291920015,113.17213572099199,111.41886395254934,118.71689328578287
2024-05-28 10:18:44,118.94180798066685,68.07565128158302,112.69105040495215,111.0512076409935,118.03226679684087
2024-05-28 10:18:44,119.37704354306558,39.30005763598779,112.55042150019472,111.40592292839766,117.39077260910054
2024-05-28 10:18:44,120.31663879945894,47.94357038129067,113.02480703967979,112.7983312826871,117.13281068126224
2024-05-28 10:18:44,121.4970831357286,78.80628372210946,114.15845859952677,115.03430868479602,117.42699378145609
2024-05-28 10:18:44,122.54802390699493,105.34576191202838,115.75725747494123,117.54530401220708,118.26635378310856
2024-05-28 10:18:44,123.35119930867101,112.66305826653318,117.49446613321413,119.78327804618102,119.51670970093254
2024-05-28 10:18:44,124.08179949756034,104.13790123357235,119.01543735857821,121.49850813221832,120.96080784305599
2024-05-28 10:18:44,124.87874195150397,92.2782775791578,119.99740972105191,122.62366264852456,122.30659381142658
2024-05-28 10:18:44,125.55651299505496,86.51862964055664,120.20186713535148,122.95795126051044,123.18879834585363
2024-05-28 10:18:44,125.71651007439019,85.70912313805027,119.56112668714546,122.15832921902964,123.26643979809525
2024-05-28 10:18:44,125.15708869911776,79.190561654649,118.26468444244384,120.15667615817381,122.42976915865593
2024-05-28 10:18:44,124.12371780345238,57.7710137664525,116.71754979551491,117.4789623935835,120.91473412497012
2024-05-28 10:18:44,123.1037708629684,25.30672316803944,115.31530502903475,114.99372031867836,119.15125220851644
2024-05-28 10:18:44,122.40050688011753,-3.085343289422631,114.20873647657058,113.30293311904236,117.46368103934937
2024-05-28 10:18:44,121.94342806469623,-15.121180179417323,113.29447713006296,112.38190981696958,115.90015762064485
2024-05-28 10:18:44,121.458587909255,-11.421929200816594,112.42644925781799,111.76966838286421,114.34336383138933
2024-05-28 10:18:44,120.75057083690606,-1.4262384248921325,111.60552048274135,111.07048191148463,112.79207531346981
2024-05-28 10:18:44,119.84277233020129,8.54549713725322,110.9557804369827,110.296998783159,111.50146516278308
2024-05-28 10:18:44,118.90113201746745,22.710382325448002,110.52477160818272,109.76144199869752,110.78468082610097
2024-05-28 10:18:44,118.03393219440083,52.179879627279696,110.13237498481506,109.65825409143194,110.6820948657602
2024-05-28 10:18:44,117.18934543177983,103.25244488136137,109.48312732130202,109.83030420461496,110.8951216958305
2024-05-28 10:18:44,116.28188482883456,168.05183484839873,108.4725816812017,109.98151167530642,111.06910668140789
2024-05-28 10:18:44,115.37716595102795,226.82853307068126,107.33669934451476,110.00769828024838,111.09331805188648
2024-05-28 10:18:44,114.67044850387016,260.636880461379,106.43970513353314,110.01212108837537,111.08256585156356
2024-05-28 10:18:44,114.28038426977578,263.70331473154476,105.9407715666239,110.06097891905245,111.11262316304058
2024-05-28 10:18:44,114.13983865448643,246.19757079062967,105.72035892007545,110.05123536404251,111.07924963543704
2024-05-28 10:18:44,114.12352550816537,226.45874621739677,105.59850544446026,109.82376097856873,110.83684376536328
2024-05-28 10:18:44,114.22601333959157,217.98506192412157,105.54210236608041,109.33665970299553,110.39481198944563
2024-05-28 10:18:44,114.55616023573992,218.77036311290698,105.64533506512458,108.74184788158064,109.95513976242391
2024-05-28 10:18:44,115.168628317648,211.1407859222364,105.96562166832013,108.33415481248346,109.80488945110612
2024-05-28 10:18:44,115.9324338412155,175.9514983482844,106.42024072968353,108.36678712009008,110.12562206047801
2024-05-28 10:18:44,116.55550203590292,112.28710642102595,106.83110356911284,108.83140776947857,110.7865522210536
2024-05-28 10:18:44,116.74214307989413,43.76215151723028,107.05220992465486,109.4232700156072,111.33380504323935
2024-05-28 10:18:44,116.39499993621175,1.9432966839954247,107.08645205163351,109.78749501772384,111.33134736063899
2024-05-28 10:18:44,115.71678299103834,0.8263608141954656,107.12152220451188,109.83223515239504,110.8034263474377
2024-05-28 10:18:44,115.09386867764567,27.381348726367072,107.42843524389225,109.78809234701116,110.31553190409109
2024-05-28 10:18:44,114.85586826594282,56.763190394231785,108.19096155382947,110.00380791119395,110.57340029551608
2024-05-28 10:18:44,115.17842955339218,73.88171369266095,109.49988682641143,110.81788140819343,111.94850669051124
2024-05-28 10:18:44,116.25189236035091,78.74657705716534,111.63743866667718,112.73587391650575,114.46515417618258
2024-05-28 10:18:44,118.55112838428133,75.98866774410206,115.43861952190838,116.73365570023074,118.31705013446373
2024-05-28 10:18:44,123.00390991123227,66.15708365363197,122.37265574735616,124.37910031672399,124.42855030938587
2024-05-28 10:18:44,130.99370225906455,47.85208947260201,134.11759392013633,137.5946013419185,134.5630282547601
2024-05-28 10:18:44,144.08609910306814,24.41862005845022,151.64507508285516,157.7389018338114,150.71941224491508
2024-05-28 10:18:44,163.21948787337436,7.203354691215206,174.20445188349825,183.83298714127028,173.5758418117407
2024-05-28 10:18:44,187.3483835938963,12.247058382451053,198.76916829151466,211.205175534325,200.47286135733896
2024-05-28 10:18:44,212.3495926050147,48.17139240267243,220.15687342897724,232.81049073613966,225.05869516239056
2024-05-28 10:18:44,231.39814064256106,100.82211051711963,231.72194944933446,242.9737233372563,239.98211848134747
2024-05-28 10:18:44,236.94465676331302,134.55726869322186,226.83959998091132,239.51947795337244,240.10882776967807
2024-05-28 10:18:44,223.44707933269416,119.56601299932865,201.77957785859857,221.8283776309537,223.1022577398888
2024-05-28 10:18:44,190.51677939717555,60.34957154380171,159.5300510612924,189.01072127233758,189.20486096922454
2024-05-28 10:18:44,145.51661120405728,-6.418785528414078,111.6009637310381,143.3219963902448,143.51341024214554
2024-05-28 10:18:44,102.47379172883211,-42.38776794414781,74.23476540532111,95.16108834779853,97.92338665818676
2024-05-28 10:18:44,75.54495769260375,-35.97675967316021,59.71534221763844,60.86077562866717,67.12266272557139
2024-05-28 10:18:44,70.84877002513039,-5.8204190456446545,68.92116509913994,52.478778905262274,59.84634251421672
2024-05-28 10:18:44,83.20259038075052,18.654781927438545,91.20980758229095,68.82360922429254,73.11074180189112
2024-05-28 10:18:44,100.327564495326,20.702578862030865,111.72912149992317,95.92785020967544,94.48143128682531
2024-05-28 10:18:44,110.98066575102037,5.5207403134306405,120.52599816075008,116.32990643330055,110.18412163614522
2024-05-28 10:18:44,111.09119287259722,-9.364834133663775,117.1885798649414,120.0088093869451,113.04161758441464
2024-05-28 10:18:44,104.30284590806863,-11.59824219288533,108.65834336254862,109.51125408503184,105.3604641328943
2024-05-28 10:18:44,97.57411601841238,-3.193758954650302,102.795979823103,96.16015861026136,95.53059563488772
2024-05-28 10:18:44,95.61499056214933,5.074753420104883,102.85029704211456,90.53913579031085,91.12011277324083
2024-05-28 10:18:44,98.20913318195124,5.885349435852382,106.58234056092968,94.81581282996254,93.65807939093726
2024-05-28 10:18:44,101.84597097271525,1.1576937930731699,109.73422902367084,102.90934817962801,98.95660639428043
2024-05-28 10:18:44,103.52275456640618,-2.6525816645584834,110.14101172735133,107.46153707240674,102.02581766630361
2024-05-28 10:18:44,103.08407679877025,-2.342687708912847,108.88179936406462,106.43888483050546,101.57715859316107
2024-05-28 10:18:44,102.3808427140459,-0.024179497958315137,108.20577984482684,103.36181574709593,100.06332745678637
2024-05-28 10:18:44,102.82000560578355,1.0305373251725396,109.06832168084375,102.29893386231291,100.1682889361459
2024-05-28 10:18:44,104.09861815870624,0.3647411748269933,110.76801002572093,103.78773572612285,102.06294416890495
2024-05-28 10:18:44,105.06428224250402,-0.266742148400391,112.29800021969959,105.55207300401361,104.03382029608544
2024-05-28 10:18:44,105.21448337828296,0.06526537613330105,113.37471154664085,105.93449987672099,104.89766008012013
2024-05-28 10:18:44,105.07235171189065,0.4740951476932588,114.2159878321703,105.55869855828051,105.08124525869708
2024-05-28 10:18:44,105.34601115190756,0.04731740781463448,114.8772203818856,105.84268216573825,105.56607528036685
2024-05-28 10:18:44,106.1291615548955,-0.6695719358506129,115.15637957231104,106.97686557938671,106.53914514544769
2024-05-28 10:18:44,107.02583349246463,-0.5669649049470737,115.03908677111464,108.01987388412233,107.43320757627608
2024-05-28 10:18:44,107.76007991144786,0.32010736015097424,114.91836267246214,108.50732947509908,107.9200254015708
2024-05-28 10:18:44,108.36527963594517,0.8254424572590388,115.21811237142576,109.11191578099424,108.30710958007622
2024-05-28 10:18:44,108.8710003460977,0.2822651349309081,115.92932851031219,110.60043967213568,108.88662929069515
2024-05-28 10:18:44,109.10404982466935,-0.5787119777335086,116.68520905113131,112.70296462633057,109.30839464410086
2024-05-28 10:18:44,108.89044049563901,-0.6528388743251143,117.22798471744572,114.38002215229994,108.94371175291343
2024-05-28 10:18:44,108.34514806980977,0.08093935346551924,117.63203786779374,115.0356620260015,107.83812508584693
2024-05-28 10:18:44,107.88446625629474,0.6987845566369506,118.0974148412755,115.15600375959724,107.04170372707348
2024-05-28 10:18:44,107.95655868752416,1.1920857414578598,118.72117647236573,115.71878287527748,107.7835937794706
2024-05-28 10:18:44,108.78135685574054,4.332007610728806,119.54180093464043,117.18796362167473,110.35024431177962
2024-05-28 10:18:44,110.3243591134975,15.312202943148923,120.66869604932941,119.23153683056431,113.93083991942002
2024-05-28 10:18:44,112.40373884877728,38.08636943323995,122.20821844634105,121.28273484470002,117.48835314558907
2024-05-28 10:18:44,114.72794140768013,70.6451767737342,124.03984294785741,123.07704852737659,120.52719615077282
2024-05-28 10:18:44,116.9173555912468,104.071474075057,125.77894219819875,124.57279578981563,123.05811440507182
2024-05-28 10:18:44,118.68050519506802,127.45788919973461,127.08291928610768,125.6599146248023,125.21198154076878
2024-05-28 10:18:44,120.0553275268701,134.89451691946167,127.98472664895733,126.27013295404473,127.12499434426974
2024-05-28 10:18:44,121.41311954730395,128.8282593829647,128.81462324278772,126.71194920849977,129.0333248180651
2024-05-28 10:18:44,123.12172264634552,117.68796506568022,129.7554062371587,127.57036728358929,131.1868296907933
2024-05-28 10:18:44,125.16226957544576,110.10818427623437,130.5695561776801,129.09897729340597,133.5609341719955
2024-05-28 10:18:44,127.08738860987253,109.84603210193032,130.8530974773596,130.80591989467555,135.74362550475436
2024-05-28 10:18:44,128.3778007078692,114.54448962794295,130.52233824649335,131.79249959770758,137.21841192879623
2024-05-28 10:18:44,128.87364261025996,118.83985182153452,129.97503647153556,131.54679886470996,137.78308170953758
2024-05-28 10:18:44,128.86781474015388,119.18211899918248,129.7692146340882,130.3609879378286,137.6706663457378
2024-05-28 10:18:44,128.75196687855328,116.37357841183137,130.15233682847065,128.94792558791968,137.2704296280838
2024-05-28 10:18:44,128.59577865754753,113.89253155716305,130.85874825425842,127.72916129280081,136.77408712840872
2024-05-28 10:18:44,128.137394591113,114.05070012085409,131.3290142754524,126.58206669399365,136.10122168632623
2024-05-28 10:18:44,127.13806037443712,115.98704185779778,131.12693960569595,125.19422549826797,135.09473724537395
2024-05-28 10:18:44,125.61227434414288,117.23741486545036,130.18329343514867,123.45131365022343,133.69674196426058
2024-05-28 10:18:44,123.7202052206603,116.65251809848579,128.768024372679,121.42768149262149,131.94405031090338
2024-05-28 10:18:44,121.59628064464015,115.31612410157227,127.33337939032577,119.20535023592566,129.9162413885788
2024-05-28 10:18:44,119.35081679653982,114.85982079190067,126.28424567003488,116.86647099347616,127.75390384089347
2024-05-28 10:18:44,117.14880288709246,115.57179804773,125.73201185224747,114.56989800488893,125.63604208113848
2024-05-28 10:18:44,115.19924826506801,116.44614294888964,125.43180268227067,112.49058218541792,123.65691210550048
2024-05-28 10:18:44,113.65843411281655,116.64662083038834,124.98991726458694,110.69664248814655,121.76587721569403
2024-05-28 10:18:44,112.55817491019734,116.3785468581927,124.14837830297321,109.15785411941059,119.88354339496966
2024-05-28 10:18:44,111.81862489229044,116.34202142552463,122.91109089632555,107.87202568435634,118.08242984598016
2024-05-28 10:18:44,111.31026719272796,116.7680842696721,121.50227429537478,106.94150273295408,116.63519260995861
2024-05-28 10:18:44,110.93682733347683,117.25620143104706,120.26610199561537,106.49945840812211,115.84214681857574
2024-05-28 10:18:44,110.74431328873456,117.14827295708534,119.49914503063964,106.53767048064465,115.77711875190217
2024-05-28 10:18:44,110.94474368507183,114.92971205308227,119.24003052443723,106.81853778378402,116.21638509455427
2024-05-28 10:18:44,111.70903441428798,106.73371120475993,119.23291884094887,107.02335473943245,116.82807344340927
2024-05-28 10:18:44,112.89445354851799,87.37213811246889,119.15591324264459,107.00854268712905,117.4031744490866
2024-05-28 10:18:44,114.0649183664374,55.82305131990304,118.88950799263218,106.86966544330465,117.90920162819592
2024-05-28 10:18:44,114.82691452207858,19.792694445745955,118.59003640899768,106.75743972981397,118.38844203504856
2024-05-28 10:18:44,115.12158337188254,-7.727203521526803,118.53268804748424,106.68128616719459,118.81928448547417
2024-05-28 10:18:44,115.20428887952512,-17.903659812917944,118.84389682856354,106.50950984095996,119.04069168845183
2024-05-28 10:18:44,115.39447396665201,-12.24750921918021,119.36904116363624,106.17499706949938,118.86834229399976
2024-05-28 10:18:44,115.829039966998,-0.36532394366843607,119.83483451012313,105.87003802037121,118.35311763375331
2024-05-28 10:18:44,116.36563629950389,7.56676640498038,120.11175034439206,105.94037945859927,117.85604302911584
2024-05-28 10:18:44,116.70933760953467,7.230064854010087,120.2805050179363,106.53360474352283,117.80405821045973
2024-05-28 10:18:44,116.72252589621912,1.4269032914082032,120.52139036215183,107.44955217181035,118.40635490800798
2024-05-28 10:18:44,116.627969579185,-3.7365331043527683,121.00665306253396,108.39402227784139,119.55635021610021
2024-05-28 10:18:44,116.82612743162383,-4.282282996823243,121.81606614701639,109.25650763103721,120.87197744520323
2024-05-28 10:18:44,117.49011004264891,-1.0658355561772972,122.8565611417663,110.05067083668078,121.86213315173138
2024-05-28 10:18:44,118.38303742802735,2.068508972908347,123.87975214565455,110.70937407142848,122.22865470902063
2024-05-28 10:18:44,119.07541143371438,2.383475048536989,124.62800583877062,111.08545842102737,122.08341269315834
2024-05-28 10:18:44,119.31488096921385,0.46706068385805033,124.98637443574088,111.12317929870095,121.84305204788664
2024-05-28 10:18:44,119.19089437038544,-1.1909883287378926,125.02180356280975,110.94031161050617,121.8861407367956
2024-05-28 10:18:44,118.98566555126756,-1.1232972458158934,124.9084276258406,110.74041042795946,122.27784607549114
2024-05-28 10:18:44,118.91780983119133,-0.02926058010870424,124.84031777391218,110.69022436916195,122.78025337204798
2024-05-28 10:18:44,119.03150561974967,0.6243757605812429,125.00705586649387,110.89584751309626,123.11506045238839
2024-05-28 10:18:44,119.27427782345745,0.6435727284980852,125.5579166543458,111.44829959995297,123.23695944590217
2024-05-28 10:18:44,119.63826323879047,2.11667222825306,126.48974360167213,112.42602444964162,123.38429107434746
2024-05-28 10:18:44,120.22747468515216,8.889585912397344,127.59789982881345,113.84708108553934,123.88731706989189
2024-05-28 10:18:44,121.19285261555923,23.65204060129904,128.63247913063128,115.63888717723309,124.92500064710605
2024-05-28 10:18:44,122.59659937181466,43.22442666109738,129.54835854391524,117.63633567157773,126.43325461630025
2024-05-28 10:18:44,124.31590992987834,57.22235345550636,130.5853861299871,119.59519230664212,128.17635391469716
2024-05-28 10:18:44,126.0370830553077,54.76861113169585,132.0315951972177,121.21933880021523,129.8273770099332
2024-05-28 10:18:44,127.35174425280488,34.470085572181205,133.84740231949286,122.21153915151757,131.00303344495225
2024-05-28 10:18:44,127.96094443082531,7.21049081478627,135.56849998693772,122.40968116114577,131.39655549216647
2024-05-28 10:18:44,127.88044440148013,-10.29334394426581,136.6317579603649,121.95020608305781,131.01723046424627
2024-05-28 10:18:44,127.42306188695423,-3.2641164453809157,136.73820177875783,121.19043747236489,130.23271102264954
2024-05-28 10:18:44,126.9168339010091,36.158164835134706,135.90164109647108,120.37454766097255,129.4673102265468
2024-05-28 10:18:44,126.44872531979117,103.70703727312656,134.3380383726894,119.47170177130721,128.8982894623962
2024-05-28 10:18:44,125.908718469729,180.16948297598424,132.43824191631444,118.41578378197944,128.50131242880124
2024-05-28 10:18:44,125.25452783867406,239.50048925534483,130.72744062813447,117.40566204163709,128.3041864004326
2024-05-28 10:18:44,124.68096980368112,265.2661088463936,129.65799273775403,116.856730432634,128.4602646916544
2024-05-28 10:18:44,124.5056247972693,260.2613698848531,129.34957931949404,117.04458829037098,129.04144098528226
2024-05-28 10:18:44,124.89139380180875,241.1263841970533,129.51424851381026,117.83907487669573,129.84989099403958
2024-05-28 10:18:44,125.66440491355948,225.33801934839997,129.6402143148231,118.78967106640606,130.51392536954745
2024-05-28 10:18:44,126.35942253624248,221.76297472940334,129.27240121588065,119.39683937527478,130.72387952517653
2024-05-28 10:18:44,126.4603153166694,228.8409184059653,128.18941924151264,119.29189461432743,130.33691422882842
2024-05-28 10:18:44,125.71302934904395,238.4880648270417,126.45435917772679,118.32580261658046,129.3617052628102
2024-05-28 10:18:44,124.30287393283105,242.58000570450062,124.41753530609346,116.6668545507435,127.94903678350082
2024-05-28 10:18:44,122.73013532277405,238.65284631017963,122.63777688155658,114.80021844223647,126.37652296662046
2024-05-28 10:18:44,121.48307357614705,230.8822126211366,121.63529979542045,113.30182367264618,124.98883003676852
2024-05-28 10:18:44,120.78363682454628,224.14009834759855,121.567172679893,112.52745607088099,124.10829651338916
2024-05-28 10:18:44,120.56093463092249,215.70956795612904,122.08539455442586,112.46765837820172,123.92688006961497
2024-05-28 10:18:44,120.60930341497446,195.87782167137027,122.55393664310856,112.8488215118362,124.42513977454375
2024-05-28 10:18:44,120.78668025572267,161.6998602940148,122.5113912257909,113.38931489957267,125.39512872367963
2024-05-28 10:18:44,121.09960743581348,129.01080783583535,121.99454392387327,114.0233694363311,126.5497052879508
2024-05-28 10:18:44,121.61419416220839,123.43530270995323,121.41022102369566,114.89199404918733,127.63202982550118
2024-05-28 10:18:44,122.30122040928022,155.77936392327462,121.11881728256529,116.09719756717934,128.50593009315776
2024-05-28 10:18:44,123.01589543781462,209.3634657107819,121.20172279508888,117.48091282673086,129.22146908872855
2024-05-28 10:18:44,123.66602277973371,253.51281210273393,121.58891782746748,118.69083365171367,129.98887102962516
2024-05-28 10:18:44,124.35968328155892,267.79582406876966,122.2793472661027,119.48103107876994,131.0392521081272
2024-05-28 10:18:44,125.3155244874602,254.34893726318117,123.35867009632584,119.90284314764604,132.44403720265908
2024-05-28 10:18:44,126.61616164921843,231.69688600688204,124.81446087794546,120.19015139435832,134.0118286086417
2024-05-28 10:18:44,128.0934898117384,218.70508539227558,126.42099987597119,120.56770728217371,135.4044661460405
2024-05-28 10:18:44,129.51363985741366,220.8771466984051,127.97567509085705,121.28960742935914,136.50372053624682
2024-05-28 10:18:44,130.96822407482054,228.05361775851125,129.84851670047217,122.92852764159096,137.8326455096146
2024-05-28 10:18:44,133.24253583745045,225.88476413720144,133.42794728101393,126.75557391310028,140.77378153934995
2024-05-28 10:18:44,137.94263741818975,211.7612404169659,140.96336787646004,134.95382522002325,147.4536689115628
2024-05-28 10:18:44,147.19748929379608,198.42058134806612,154.55735224836636,150.0830909504083,160.1120315125555
2024-05-28 10:18:44,162.76000863011657,200.30536341187621,174.58094486361955,173.1527956680114,179.60905042999943
2024-05-28 10:18:44,184.48273210413186,217.8442853936175,198.43780585970924,201.12049394075393,203.50861632837317
2024-05-28 10:18:44,208.94675434034116,235.13117306615266,220.851026490799,226.73923283945382,225.83375975205564
2024-05-28 10:18:44,229.93260624313973,230.0012808302677,235.89160960654655,242.4352883786654,240.08690848860977
2024-05-28 10:18:44,241.09000002381578,188.11452785618522,239.06578672510392,244.89078287753156,243.2972476488428
2024-05-28 10:18:44,238.3141140509923,114.61377908750681,227.68348144017406,235.04161466342174,236.5643037327282
2024-05-28 10:18:44,220.08958978073264,34.84017499209339,200.84001447676343,213.84083631048938,221.3780130019298
2024-05-28 10:18:44,187.88130206369584,-20.86831674848072,161.6021557306829,180.6453441843196,197.04928586466218
2024-05-28 10:18:44,148.03085422010372,-37.45127833529623,119.5353049041207,137.92872346826763,163.78216791279374
2024-05-28 10:18:44,111.8204157023713,-22.80135503368582,88.33862165094055,95.99081541429054,127.67911707835329
2024-05-28 10:18:44,90.53127533000078,1.5269125778810633,78.06194946582985,69.43149215933057,100.06926184792088
2024-05-28 10:18:44,88.54764354379836,16.09468946188032,88.33287917779626,67.08125332357038,90.25783083610223
2024-05-28 10:18:44,100.7028572489791,14.110423908083403,108.73676345895778,85.01553992056357,98.57922912805614
2024-05-28 10:18:44,116.06959324127163,2.0147792217236136,125.87021530592803,108.93882702133818,115.96384560256261
2024-05-28 10:18:44,124.8759342614973,-8.156354868126257,131.44379357100254,123.67294764582903,129.9961108167444
2024-05-28 10:18:44,123.68269701663436,-8.79654650148554,126.03941725490061,122.59583973014517,132.79537064872343
2024-05-28 10:18:44,116.01977115210059,-1.84428778742026,116.7868255554272,110.63978269074347,125.33966728629717
2024-05-28 10:18:44,108.68851124924572,4.718776951050296,111.22776703915223,99.0392547573085,115.35451990551915
2024-05-28 10:18:44,106.49832514772717,5.321591552442251,112.0060987362379,96.07312587974184,110.54856615909482
2024-05-28 10:18:44,109.2682940668662,2.572378658617306,116.20342019318863,101.39691064241319,112.82469292458063
2024-05-28 10:18:44,113.18902989733458,6.361265744405961,119.16949270873994,108.33853594508666,118.1844244458905
2024-05-28 10:18:44,114.85495785487701,28.199567821143926,118.84629322616358,111.05598843409085,121.59888381565544
2024-05-28 10:18:44,113.98635045556755,74.08587378824181,116.70327779835674,109.30204839403218,121.59222297458247
2024-05-28 10:18:44,112.64283928550503,138.53365020535028,115.26547503965243,106.89208197498961,120.3730687316817
2024-05-28 10:18:44,112.55469821769789,204.20951556727286,115.50085120160499,106.78107289868994,120.48827493330067
2024-05-28 10:18:44,113.69803058862925,250.50501518244081,116.65987799716282,108.49258835165203,122.24085539012489
2024-05-28 10:18:44,115.1557204491251,266.1283399875985,117.90302746819242,109.96644119858169,124.28905403452039
2024-05-28 10:18:44,116.5846534000319,255.6150909920728,119.29488586188371,110.58615153215295,125.79983248499163
2024-05-28 10:18:44,118.38314801666715,235.18354214933913,121.17318561231045,111.51559364903366,127.18987560605143
2024-05-28 10:18:44,120.69893462268416,221.8374702655779,123.17050133647695,113.57388592167572,128.92880907108412
2024-05-28 10:18:44,122.89326944142222,223.12685225781655,124.38025628130066,115.92302912765889,130.5080613303235
2024-05-28 10:18:44,124.23369956491352,234.04635753067785,124.42884677117773,117.21161008318448,131.11324927675443
2024-05-28 10:18:44,124.83300504290577,243.19207699812773,123.99828206756158,117.38270472717022,130.94337607435716
2024-05-28 10:18:44,125.55869099246539,243.01350910483157,124.11337515567146,117.72769143965618,131.22221879103736
2024-05-28 10:18:44,127.01497314267156,234.26404134539445,125.09394057640237,119.25388386837561,132.7928107588399
2024-05-28 10:18:44,128.85920668936902,220.01454470997945,126.41375714164701,121.51233416459223,135.08917750445625
2024-05-28 10:18:44,130.2440713944775,197.58226829054044,127.48847129896802,123.24511302310157,136.7701160565559
2024-05-28 10:18:44,130.7814971217867,161.31851177922567,128.30545285174986,123.85948472373458,137.1932349622362
2024-05-28 10:18:44,130.88276388511423,115.02612074023992,129.212219493947,123.87526748562611,136.9472695215677
2024-05-28 10:18:44,131.21380343438472,76.78472937538044,130.36056608528477,124.04965498789304,136.9802737439047
2024-05-28 10:18:44,132.05739636574592,65.76678930540602,131.57371141487207,124.5586839146485,137.59892197282736
2024-05-28 10:18:44,133.2757420307259,83.28294636374837,132.637023426548,125.18612903453244,138.49429408563077
2024-05-28 10:18:44,134.6652409568879,108.80022975676563,133.48790581348183,125.89465906341582,139.40324610177288
2024-05-28 10:18:44,136.1179003546554,116.6506121521828,134.096693291925,126.81442863936594,140.33312142505588
2024-05-28 10:18:44,137.48624674746398,98.17257567113283,134.3283272463571,127.81258509671294,141.202582041764
2024-05-28 10:18:44,138.49975843762257,67.1295611448479,134.02508418818067,128.4857734537707,141.6532238866807
2024-05-28 10:18:44,138.9277691947621,43.060708020087034,133.16800347510872,128.6833936917247,141.38956338919016
2024-05-28 10:18:44,138.80085907080206,32.32339120103952,131.90139360991608,128.79975907550534,140.55963661387523
2024-05-28 10:18:44,138.40577816539331,26.957922377986232,130.44071670613457,129.37014920905725,139.6552174587122
2024-05-28 10:18:44,138.0317492474939,17.506100575755106,128.99820425807093,130.4320629222584,139.03756492258282
2024-05-28 10:18:44,137.74289021550868,3.0213177834041516,127.7657861314048,131.4070395624139,138.6157488783679
2024-05-28 10:18:44,137.3906082192766,-9.460240886874994,126.88941971832442,131.64828980833985,138.01565112923657
2024-05-28 10:18:44,136.7577468474382,-12.460147927423934,126.37774250152401,131.02629434968205,137.00534212598106
2024-05-28 10:18:44,135.65577600788916,-5.43535706319331,126.0206394589183,129.88170795189095,135.6572970253587
2024-05-28 10:18:44,134.0108479502738,4.535834653528964,125.49443509450947,128.4830330046118,134.13123264858817
2024-05-28 10:18:44,131.98170287861953,10.626200614749418,124.64418997851384,126.74300802264895,132.46568954058858
2024-05-28 10:18:44,129.93878454619266,15.467266089734993,123.63408549875304,124.51916675313872,130.6486447325243
2024-05-28 10:18:44,128.19573550141212,29.399112823975702,122.76024803647874,122.01889950682894,128.7722246025072
2024-05-28 10:18:44,126.73202202905247,56.42840772889457,122.13091515874812,119.72532707623353,126.96389647174956
2024-05-28 10:18:44,125.23258426287671,84.65302958691913,121.55824651041056,117.89101111339745,125.1538111032917
2024-05-28 10:18:44,123.42225689821056,95.09332437727313,120.75254961009247,116.22468336138088,123.05909949853294
2024-05-28 10:18:44,121.35212595252801,79.25395916242309,119.59656481284183,114.21158708743476,120.52041407109863
2024-05-28 10:18:44,119.3767135257615,45.923301623153264,118.22327033802371,111.73277438716657,117.80719631762427
2024-05-28 10:18:44,117.87181593093278,12.816080950493088,116.85708034506686,109.2531035924011,115.48165524248643
2024-05-28 10:18:44,116.93927636635284,-6.43884632738992,115.61791197280735,107.35536584943151,113.93674537438392
2024-05-28 10:18:44,116.33060037167876,-9.518423116576596,114.47495429485267,106.1652254219517,113.09067811949788
2024-05-28 10:18:44,115.65043498988139,-3.5687598820183486,113.33705427382442,105.29308356856728,112.4992640077684
2024-05-28 10:18:44,114.66703652753019,2.32486137462998,112.13887480679725,104.2875337159592,111.70865769384942
2024-05-28 10:18:44,113.45719863954938,3.6733230029485933,110.861243484435,103.05633333786977,110.5390353942177
2024-05-28 10:18:44,112.27325091294259,1.5759045617618348,109.55833511151748,101.8416440477718,109.13666843266931
2024-05-28 10:18:45,111.30139031717458,-0.7540676456155865,108.42324385262047,100.89237503719714,107.80740218972551
2024-05-28 10:18:45,110.58052861910768,-1.3963592865438457,107.76745591051862,100.25714947884109,106.80175797165941
2024-05-28 10:18:45,110.1228792114473,0.5355848317787136,107.82109460937974,99.86717655129672,106.24668658843211
2024-05-28 10:18:45,110.01668047246076,8.977520672177477,108.5031959335398,99.72215617763467,106.21548475219076
2024-05-28 10:18:45,110.36349343979032,33.55436995009957,109.41892327009771,99.9447154621149,106.77081848178527
2024-05-28 10:18:45,111.15695759014608,83.09116966173228,110.14403066611115,100.67419849109994,107.91702611807423
2024-05-28 10:18:45,112.25129498681609,152.8109575018525,110.5573993910918,101.92217324270291,109.52866037091046
2024-05-28 10:18:45,113.41418458677691,221.09100442064747,110.89176283416421,103.48133827425573,111.31722734983585
2024-05-28 10:18:45,114.41539007359007,263.3942989481231,111.45522204265247,104.950747836203,112.88973323602013
2024-05-28 10:18:45,115.14365051331207,270.1108529077767,112.3406865806045,105.94392548094297,113.93098096225954
2024-05-28 10:18:45,115.67969191987368,251.61630386799973,113.40607585390572,106.37889937100425,114.40182931045612
2024-05-28 10:18:45,116.22938744638772,228.72235059512425,114.46067443535814,106.5474060010572,114.56822942733503
2024-05-28 10:18:45,116.96816292773009,218.27579210887743,115.41137685489576,106.83123043040533,114.83161930345621
2024-05-28 10:18:45,117.94349101458235,223.89249933179426,116.25820496406104,107.37726696441393,115.51364977553607
2024-05-28 10:18:45,119.07741670382961,236.67360662329176,117.03422726696573,108.0980907605441,116.71702807653534
2024-05-28 10:18:45,120.19730383788279,244.4240892095009,117.77374265358863,108.89425291098247,118.26211528197781
2024-05-28 10:18:45,121.07301997653052,241.98754300270124,118.45163440735878,109.7321453242921,119.70851587019999
2024-05-28 10:18:45,121.50082436925038,234.1837801693437,118.90496861598346,110.50923096221837,120.53703188213314
2024-05-28 10:18:45,121.40181715028517,229.45224653307957,118.90844298420139,110.97776616166534,120.4869903220158
2024-05-28 10:18:45,120.86711456678528,231.25458134555151,118.43110901520777,110.93443898876002,119.8380382151118
2024-05-28 10:18:45,120.1598917443283,235.93267977818837,117.7990886465043,110.51794523173932,119.33267124091003
2024-05-28 10:18:45,119.66532791013042,238.07661427423088,117.51288539662478,110.23302398389862,119.67585618194961
2024-05-28 10:18:45,119.72063640375994,236.43398496851933,117.86534209200505,110.58211502201239,120.99368273519435
2024-05-28 10:18:45,120.3979902635247,234.02432465959524,118.75931017009228,111.65059359384992,122.75886906903462
2024-05-28 10:18:45,121.45034349967901,233.66237724589868,119.85159131830846,113.05761604835757,124.2570456822162
2024-05-28 10:18:45,122.50251239492687,234.9375204482943,120.77899070424888,114.29170956305398,125.16948545196153
2024-05-28 10:18:45,123.3441423084724,235.70207258802327,121.30076416309076,115.10896419272026,125.79730989592483
2024-05-28 10:18:45,124.07664081234238,235.19397646504908,121.40725957359598,115.69560096874928,126.779545754917
2024-05-28 10:18:45,124.97795550735378,234.62816250402255,121.35624013119933,116.496152413447,128.54877861465846
2024-05-28 10:18:45,126.21689222278233,235.09344177434744,121.50207052462285,117.80452980554288,130.94093687229332
2024-05-28 10:18:45,127.6706567246163,236.0149463741605,121.97133779671132,119.42306133823077,133.22830961770717
2024-05-28 10:18:45,128.9838318762585,236.13818152295394,122.46086226231854,120.72271586248326,134.56807719362718
2024-05-28 10:18:45,129.83480463996668,235.35191267439703,122.40727000213477,121.08399874482897,134.5881569516494
2024-05-28 10:18:45,130.1843883419061,234.74894621759606,121.4525421889686,120.31278615558105,133.64317441180955
2024-05-28 10:18:45,130.23999737503428,235.03052729088776,119.76845290828547,118.69683234833406,132.4676906323221
2024-05-28 10:18:45,130.19097663959113,235.61102858527516,117.9021331466883,116.75500042256557,131.54508865863644
2024-05-28 10:18:45,130.06024757594062,235.55857841416335,116.33750100068553,114.95270404461527,130.8242712510614
2024-05-28 10:18:45,129.8315372281311,234.56442963791437,115.23132588192652,113.57012672552717,130.00342530277857
2024-05-28 10:18:45,129.63087514818454,230.98716375833132,114.47216067962734,112.6934281242011,128.9898371873986
2024-05-28 10:18:45,129.6635834576119,217.65796639274987,113.84053255033615,112.19358856479721,128.02692182480445
2024-05-28 10:18:45,129.93186722886415,182.90432675853822,113.1040663123134,111.69721257081005,127.38036837591739
2024-05-28 10:18:45,130.09192999903905,121.96879743114253,112.11229050940861,110.711073497319,126.96346008948187
2024-05-28 10:18:45,129.6716904367085,48.35533403580783,110.88242761303724,108.90057460521652,126.33293846026278
2024-05-28 10:18:45,128.432807859439,-11.275849266832983,109.51821314775032,106.28234447895467,125.04246506784578
2024-05-28 10:18:45,126.54675135272285,-36.5810848618871,108.04966093762073,103.21254468855669,122.99761998490126
2024-05-28 10:18:45,124.50863601253073,-27.974413368719322,106.49909548098512,100.2783028924853,120.55165961401477
2024-05-28 10:18:45,122.88298758962196,-3.7654262229390434,105.11182826477908,98.12497974507194,118.3237546834582
2024-05-28 10:18:45,122.00430473680636,14.56011035704326,104.33925517299029,97.16982376187137,116.86533871050081
2024-05-28 10:18:45,121.80916559340038,16.124869244845016,104.48794804820007,97.34585600404735,116.35493493889236
2024-05-28 10:18:45,121.9242202379861,4.855694710755394,105.3966179495253,98.12000591319716,116.49653883363824
2024-05-28 10:18:45,121.92871418231523,-6.901574324548491,106.44417505531689,98.80854057359001,116.71103241743343
2024-05-28 10:18:45,121.59243123810839,-9.56261916626396,106.88148366333526,98.97509314440376,116.52519277643444
2024-05-28 10:18:45,120.94872976424972,-3.3865212802650504,106.27340277057554,98.64976626114864,115.8845374283827
2024-05-28 10:18:45,120.19523832616666,3.8664110114212944,104.75531240065835,98.22502319832293,115.14242626774357
2024-05-28 10:18:45,119.55115793760163,5.980940950880826,102.91258658717886,98.12540503583371,114.75960556907656
2024-05-28 10:18:45,119.20398045988202,6.568895529362361,101.3987750091604,98.53332942245264,115.00379736127937
2024-05-28 10:18:45,119.29316873169662,19.854495091013877,100.59852929054928,99.36051823174947,115.84195493804728
2024-05-28 10:18:45,119.80658391498864,60.25354719332375,100.5172687002358,100.39521173059146,116.96700895902637
2024-05-28 10:18:45,120.49210257959076,125.96235338156947,100.90505430957222,101.45787783005561,117.92041020289912
2024-05-28 10:18:45,121.01956275008027,193.1131058111175,101.5649868812556,102.5183911421673,118.40648987217803
2024-05-28 10:18:45,121.3655678024368,230.44878363558294,102.7153176431661,103.82751690499641,118.7181625453893
2024-05-28 10:18:45,122.12250097645068,221.67305283746086,105.2020251539754,106.08695164789437,119.91817205814743
2024-05-28 10:18:45,124.53143209696725,175.58966215245954,110.43586629896114,110.63300366364697,123.60428120594672
2024-05-28 10:18:45,130.27595556970127,119.55168787397675,120.02800007504324,119.5320121124628,131.55091725389204
2024-05-28 10:18:45,141.13054341858643,83.9276611177893,135.16052684832175,135.20580984268003,145.42194444445227
2024-05-28 10:18:45,158.35197324066763,85.74957207434448,155.8716981728098,158.96324446813242,166.01930176097167
2024-05-28 10:18:45,181.50838394420137,119.31294498198034,180.48675009663629,188.6843777025927,191.6863651038388
2024-05-28 10:18:45,207.16922457308587,160.06605329378547,205.26742160105218,217.9081872913071,217.3182112365681
2024-05-28 10:18:45,229.10917637422443,179.981273128581,224.31806999811505,238.40641664839612,236.08741758380447
2024-05-28 10:18:45,240.61413260287557,163.82273342341705,230.18666279918136,244.10259627751552,242.87461489896336
2024-05-28 10:18:45,236.7880591575592,116.03503907596514,216.19471502974702,231.95971088701188,235.60919219021878
2024-05-28 10:18:45,215.57425469243125,55.958546623237154,180.86552111795692,200.6476239144089,213.8379257025182
2024-05-28 10:18:45,179.20572594468769,6.016368725227021,131.91523346681052,152.33825619100202,178.65721762570266
2024-05-28 10:18:45,136.1168706606885,-19.858082403482356,85.19242486444828,97.21517686385401,135.78282846701492
2024-05-28 10:18:45,99.44922251500142,-21.258960295817094,56.996994021578445,52.78015130560966,96.82859000691053
2024-05-28 10:18:45,80.52607231105243,-8.329442317417145,54.53940682853465,34.46864848386749,74.28504041550607
2024-05-28 10:18:45,81.98421904704705,5.556214818983077,71.90659071861603,45.01833093710525,73.51536005875089
2024-05-28 10:18:45,96.54461077213777,10.93331524006655,94.63221007409294,72.35088857216992,89.09228361653423
2024-05-28 10:18:45,112.26692310275615,6.407421325356433,109.19852287632555,97.70094634530994,108.49021365766828
2024-05-28 10:18:45,119.97386438408132,-2.0207532293332733,110.59132777006906,107.47343480064185,119.93371175232835
2024-05-28 10:18:45,117.7813082624707,-6.547607742539017,103.19555297321214,100.54787921973683,118.93616172817903
2024-05-28 10:18:45,110.41178580628117,-4.205351046909349,95.45565319300552,86.65192473006209,109.63456189714448
2024-05-28 10:18:45,104.49797742695722,1.2748213956164174,93.00499825205785,77.63576628376443,100.4273186829118
2024-05-28 10:18:45,103.52818216069969,4.050620195278763,95.46367135073501,78.50514188097209,97.24867254638725
2024-05-28 10:18:45,106.12027950676237,2.192833629149111,98.58982907645296,85.18031627070027,99.75909668336018
2024-05-28 10:18:45,108.50146780217352,-0.9342481264991445,98.92221864176133,90.07450277557021,103.3299341168157
2024-05-28 10:18:45,108.43231441617063,0.6169126261794733,96.48624027091783,89.56281420075197,104.31551264013723
2024-05-28 10:18:45,106.82325253412837,14.070168468949927,93.74603736625943,86.2650578632886,103.15008245196637
2024-05-28 10:18:45,106.0117855647485,47.69894278187786,92.76978331725181,84.9549805070904,102.66421138860761
2024-05-28 10:18:45,107.1029893990002,105.0717916612123,93.69186588157518,87.3592741930696,104.38464778132675
2024-05-28 10:18:45,109.22530787359048,175.9498388383346,95.43354427648546,91.27382148314393,107.1997792143611
2024-05-28 10:18:45,110.95796606162372,236.33813638319634,97.14304181907985,93.84618659112726,109.24050413857272
2024-05-28 10:18:45,111.88812108948501,260.79163729835255,98.64898037133356,94.50934770790835,110.06977386628945
2024-05-28 10:18:45,112.64035004821011,236.03200113038042,99.9329455789661,94.57807019369868,110.6584023342172
2024-05-28 10:18:45,113.75453571913538,167.9568111615721,100.74421900980056,95.01525008335365,111.75473580083866
2024-05-28 10:18:45,114.97080897325793,81.45295583047469,100.88641923338405,95.51123486761641,112.95265214045021
2024-05-28 10:18:45,115.6990279173112,10.956794769458511,100.61243333232242,95.57033998444354,113.43681622348873
2024-05-28 10:18:45,115.86815467848258,-17.68646483240891,100.47815681845275,95.61224499005704,113.15572440359232
2024-05-28 10:18:45,115.99239421564658,-2.676725201015688,100.83731283150341,96.49047245269416,112.87110425547588
2024-05-28 10:18:45,116.48480382765439,34.35320868541131,101.63387735392217,98.27117716096505,113.22866224436274
2024-05-28 10:18:45,117.22233292991979,64.53104222494484,102.664768663002,100.09679708589479,114.17610875377451
2024-05-28 10:18:45,117.86449796760576,69.44185215728145,103.85345374624958,101.29413554550955,115.30327044730534
2024-05-28 10:18:45,118.35453279776891,48.606167756589656,105.17655794929162,102.14325762425396,116.40759601391275
2024-05-28 10:18:45,118.90050102244173,15.982979099556534,106.44701377385722,103.3118582002779,117.52696095223602
2024-05-28 10:18:45,119.57427379287415,-10.064993961518221,107.35417588233507,104.82673429079702,118.572643470304
2024-05-28 10:18:45,120.18807108846913,-18.11886369145142,107.7687327091598,105.99180996542805,119.22868187627694
2024-05-28 10:18:45,120.61047199712023,-9.903716174344483,107.9026127848495,106.29839380553278,119.3588650763896
2024-05-28 10:18:45,120.99853412097359,2.9830038514616763,108.07186155593749,106.05720849137221,119.36273790182152
2024-05-28 10:18:45,121.59437526588137,9.12669016792009,108.35531985655246,105.9719940563926,119.87344583944136
2024-05-28 10:18:45,122.4170458582602,5.726408977833644,108.58514945030984,106.33428862087526,121.07245278703886
2024-05-28 10:18:45,123.28710639652282,-1.3725120134114885,108.62391997059524,106.86418326110162,122.46431224551795
2024-05-28 10:18:45,124.08648403369592,-4.8887569576493215,108.52250844274764,107.20971452025428,123.37671575759391
2024-05-28 10:18:45,124.84438766191711,-2.904512768471203,108.40104942648246,107.32922629716742,123.56616880394533
2024-05-28 10:18:45,125.54149868706662,1.0548100257760271,108.25896536792115,107.33613712541754,123.27660128416936
2024-05-28 10:18:45,125.96306154014755,4.160173911126015,107.94769712765678,107.17954788403891,122.83918939211765
2024-05-28 10:18:45,125.89120869996975,10.389251783557832,107.3634219069157,106.69486043016644,122.40390434696685
2024-05-28 10:18:45,125.43364747868462,28.19126814302238,106.67047735337506,105.96715455150762,122.05788839790964
2024-05-28 10:18:45,124.99915423442565,57.85192483063849,106.23549468559116,105.42454108923197,121.9570879647922
2024-05-28 10:18:45,124.80034373546516,83.0396744590546,106.2403461010914,105.35482800095195,122.08855874268195
2024-05-28 10:18:45,124.40434735831583,82.5350929718884,106.36897471542983,105.32440061111957,121.89968557011717
2024-05-28 10:18:45,122.93557126515712,51.87269206499262,105.93155376389517,104.2638761336745,120.40488561344647
2024-05-28 10:18:45,119.8516757036829,8.962876479438401,104.36288337667972,101.34504931649654,116.93297881548082
2024-05-28 10:18:45,115.54696839647231,-21.56635290874575,101.69698147293822,96.87175103999925,111.86270479077112
2024-05-28 10:18:45,111.15783963022314,-26.957643417837538,98.60543783907964,92.23728932149582,106.5185273194264
2024-05-28 10:18:45,107.70097661134666,-12.291920997868171,95.9249282134485,88.86859732676923,102.21749272062894
2024-05-28 10:18:45,105.32827909795877,6.500556755685279,94.07704618585521,87.14382429834788,99.36750844028559
2024-05-28 10:18:45,103.37652459666384,14.910644988448517,92.86200549009047,86.28177567804386,97.39995185228713
2024-05-28 10:18:45,101.06511233493941,9.287895755451807,91.69074571131918,85.12800578702341,95.39076730958688
2024-05-28 10:18:45,98.11598099447772,-2.406986513333513,90.01729717001989,83.01248152064171,92.7185698625718
2024-05-28 10:18:45,94.86820664271261,-8.904358936056884,87.76324716164747,80.13962546239219,89.40418157509353
2024-05-28 10:18:45,91.99194067068909,-5.8234642694659575,85.4942998953568,77.4453232822763,86.09805756838219
2024-05-28 10:18:45,90.04071883623305,1.6119925904122219,84.08460352656532,75.99233973114976,83.69809947177122
2024-05-28 10:18:45,89.08077939711966,5.3381847701393434,84.00622532497619,76.2043408441195,82.7341732630111
2024-05-28 10:18:45,88.6702314435163,2.8618572191605436,84.88120172472743,77.51833683607309,82.96354697146215
2024-05-28 10:18:45,88.23905543514249,-1.5385355000327903,85.76452580849184,78.79969415837618,83.5448442388322
2024-05-28 10:18:45,87.5314528694875,-2.852469008707897,85.86914764039669,79.19375773824684,83.63352708320221
2024-05-28 10:18:45,86.71808221385642,-0.7692700800792384,85.03526829258732,78.69100385202927,82.89203151721793
