Timestamp,Channel_1,Channel_2,Channel_3,Channel_4,Channel_5
2024-05-26 15:49:46,118,127,128,119,234
2024-05-26 15:49:46,122,129,133,124,235
2024-05-26 15:49:46,129,136,141,133,235
2024-05-26 15:49:46,130,135,142,134,234
2024-05-26 15:49:46,123,126,131,122,234
2024-05-26 15:49:46,119,123,127,117,235
2024-05-26 15:49:46,129,131,137,126,234
2024-05-26 15:49:46,138,139,143,134,234
2024-05-26 15:49:46,140,139,143,133,234
2024-05-26 15:49:46,136,133,136,127,234
2024-05-26 15:49:46,135,132,135,124,234
2024-05-26 15:49:46,141,137,140,130,234
2024-05-26 15:49:46,150,145,148,140,234
2024-05-26 15:49:46,150,143,147,138,234
2024-05-26 15:49:46,145,137,142,132,235
2024-05-26 15:49:46,146,139,145,134,234
2024-05-26 15:49:46,147,140,147,134,234
2024-05-26 15:49:46,147,141,147,134,234
2024-05-26 15:49:46,143,139,144,133,235
2024-05-26 15:49:46,136,132,138,127,234
2024-05-26 15:49:46,137,134,140,129,234
2024-05-26 15:49:46,144,143,148,140,235
2024-05-26 15:49:46,147,147,153,145,235
2024-05-26 15:49:46,139,137,143,135,234
2024-05-26 15:49:46,128,127,131,123,234
2024-05-26 15:49:46,125,124,127,120,234
2024-05-26 15:49:46,128,126,131,124,235
2024-05-26 15:49:46,126,124,129,123,234
2024-05-26 15:49:46,122,122,128,121,234
2024-05-26 15:49:46,125,126,131,124,234
2024-05-26 15:49:46,124,126,129,123,235
2024-05-26 15:49:46,125,129,131,126,234
2024-05-26 15:49:46,125,130,131,127,234
2024-05-26 15:49:46,113,120,118,115,234
2024-05-26 15:49:46,100,106,102,99,235
2024-05-26 15:49:46,105,109,109,103,234
2024-05-26 15:49:46,123,128,133,126,234
2024-05-26 15:49:46,130,138,144,136,234
2024-05-26 15:49:46,121,131,136,127,234
2024-05-26 15:49:46,112,126,128,118,235
2024-05-26 15:49:46,102,117,119,109,234
2024-05-26 15:49:46,111,128,130,123,234
2024-05-26 15:49:46,123,140,146,138,234
2024-05-26 15:49:46,118,135,142,132,235
2024-05-26 15:49:46,108,126,132,122,235
2024-05-26 15:49:46,105,124,130,119,235
2024-05-26 15:49:46,111,130,137,129,234
2024-05-26 15:49:46,113,133,141,133,234
2024-05-26 15:49:46,105,126,131,124,234
2024-05-26 15:49:46,91,113,118,110,234
2024-05-26 15:49:46,82,106,111,102,234
2024-05-26 15:49:46,91,116,123,114,235
2024-05-26 15:49:46,100,127,134,126,234
2024-05-26 15:49:46,99,125,132,124,235
2024-05-26 15:49:46,92,118,126,116,234
2024-05-26 15:49:46,90,117,124,113,235
2024-05-26 15:49:46,94,122,130,119,235
2024-05-26 15:49:46,96,126,134,123,234
2024-05-26 15:49:46,87,117,127,113,234
2024-05-26 15:49:46,75,107,115,101,234
2024-05-26 15:49:46,76,108,118,103,234
2024-05-26 15:49:46,85,118,129,115,235
2024-05-26 15:49:46,91,124,137,123,234
2024-05-26 15:49:46,91,123,139,123,235
2024-05-26 15:49:46,81,112,128,111,235
2024-05-26 15:49:46,71,103,117,99,234
2024-05-26 15:49:46,76,111,124,106,234
2024-05-26 15:49:46,90,129,139,126,234
2024-05-26 15:49:46,80,120,127,116,232
2024-05-26 15:49:46,67,106,115,101,235
2024-05-26 15:49:46,68,107,117,103,234
2024-05-26 15:49:46,78,118,131,117,235
2024-05-26 15:49:46,86,127,141,128,234
2024-05-26 15:49:46,83,124,137,124,234
2024-05-26 15:49:46,72,112,125,111,235
2024-05-26 15:49:46,67,109,119,105,234
2024-05-26 15:49:46,72,117,124,112,234
2024-05-26 15:49:46,81,129,135,126,234
2024-05-26 15:49:46,78,127,132,123,234
2024-05-26 15:49:46,67,117,121,110,235
2024-05-26 15:49:46,59,111,115,103,234
2024-05-26 15:49:46,63,117,120,109,234
2024-05-26 15:49:46,72,125,128,120,234
2024-05-26 15:49:46,71,125,126,120,234
2024-05-26 15:49:46,65,120,121,114,235
2024-05-26 15:49:46,60,114,119,109,235
2024-05-26 15:49:46,59,114,121,111,234
2024-05-26 15:49:46,61,118,125,115,235
2024-05-26 15:49:46,60,118,126,114,234
2024-05-26 15:49:46,55,112,120,107,234
2024-05-26 15:49:46,57,115,122,110,234
2024-05-26 15:49:46,66,124,131,120,234
2024-05-26 15:49:46,70,129,135,127,234
2024-05-26 15:49:46,62,122,128,118,235
2024-05-26 15:49:46,52,113,118,108,235
2024-05-26 15:49:46,52,113,117,107,234
2024-05-26 15:49:46,58,121,124,115,235
2024-05-26 15:49:46,63,126,129,122,234
2024-05-26 15:49:46,58,121,122,117,234
2024-05-26 15:49:46,47,108,111,104,235
2024-05-26 15:49:46,40,99,105,97,234
2024-05-26 15:49:46,48,107,115,108,235
2024-05-26 15:49:46,63,122,130,127,234
2024-05-26 15:49:46,70,125,137,133,235
2024-05-26 15:49:46,66,121,132,128,234
2024-05-26 15:49:46,72,129,138,134,235
2024-05-26 15:49:46,86,143,151,150,234
2024-05-26 15:49:46,98,156,165,166,234
2024-05-26 15:49:46,102,160,168,169,234
2024-05-26 15:49:46,94,151,157,158,234
2024-05-26 15:49:46,82,141,144,145,235
2024-05-26 15:49:46,69,129,130,132,234
2024-05-26 15:49:46,57,118,118,121,234
2024-05-26 15:49:46,50,112,111,115,235
2024-05-26 15:49:46,44,105,108,111,234
2024-05-26 15:49:46,42,103,107,111,234
2024-05-26 15:49:46,45,107,110,116,234
2024-05-26 15:49:46,48,109,114,121,235
2024-05-26 15:49:46,49,110,115,124,234
2024-05-26 15:49:46,51,113,113,126,234
2024-05-26 15:49:46,55,118,114,130,234
2024-05-26 15:49:46,60,122,122,135,234
2024-05-26 15:49:46,60,120,127,136,234
2024-05-26 15:49:46,53,111,121,126,234
2024-05-26 15:49:46,48,105,115,121,234
2024-05-26 15:49:46,51,108,117,126,235
2024-05-26 15:49:46,63,120,128,141,235
2024-05-26 15:49:46,72,127,136,151,234
2024-05-26 15:49:46,71,125,133,149,234
2024-05-26 15:49:46,64,117,124,138,235
2024-05-26 15:49:46,64,117,123,135,235
2024-05-26 15:49:46,68,120,127,140,235
2024-05-26 15:49:46,73,123,131,144,235
2024-05-26 15:49:46,73,120,130,143,235
2024-05-26 15:49:46,68,112,122,133,234
2024-05-26 15:49:46,65,110,119,130,234
2024-05-26 15:49:46,65,109,117,127,234
2024-05-26 15:49:46,67,112,120,130,235
2024-05-26 15:49:46,71,114,123,133,234
2024-05-26 15:49:46,67,108,118,128,235
2024-05-26 15:49:46,63,104,114,125,234
2024-05-26 15:49:46,70,112,122,135,235
2024-05-26 15:49:46,77,119,129,144,234
2024-05-26 15:49:46,77,120,129,145,234
2024-05-26 15:49:46,75,119,126,143,234
2024-05-26 15:49:46,75,120,126,144,234
2024-05-26 15:49:46,79,125,132,149,235
2024-05-26 15:49:46,84,130,139,156,234
2024-05-26 15:49:46,81,127,135,152,234
2024-05-26 15:49:46,72,120,125,142,234
2024-05-26 15:49:46,73,120,136,145,234
2024-05-26 15:49:46,72,119,138,145,234
2024-05-26 15:49:46,69,117,134,142,234
2024-05-26 15:49:46,63,115,127,137,234
2024-05-26 15:49:46,63,117,126,137,235
2024-05-26 15:49:46,66,122,129,142,234
2024-05-26 15:49:46,67,123,130,144,234
2024-05-26 15:49:46,64,121,127,141,234
2024-05-26 15:49:46,61,120,126,139,234
2024-05-26 15:49:46,62,121,127,139,234
2024-05-26 15:49:46,64,122,126,142,235
2024-05-26 15:49:46,68,125,129,146,234
2024-05-26 15:49:46,70,127,130,147,234
2024-05-26 15:49:46,70,125,128,144,234
2024-05-26 15:49:46,73,126,129,143,234
2024-05-26 15:49:46,78,130,133,145,234
2024-05-26 15:49:46,76,126,128,139,234
2024-05-26 15:49:46,69,117,119,128,234
2024-05-26 15:49:46,63,110,112,121,234
2024-05-26 15:49:46,61,107,110,118,234
2024-05-26 15:49:46,59,104,107,115,234
2024-05-26 15:49:46,56,102,104,113,234
2024-05-26 15:49:46,57,102,106,115,234
2024-05-26 15:49:46,64,107,115,122,234
2024-05-26 15:49:46,70,113,121,129,234
2024-05-26 15:49:46,73,114,122,131,234
2024-05-26 15:49:46,70,112,117,128,235
2024-05-26 15:49:46,64,106,110,121,235
2024-05-26 15:49:46,65,107,111,123,234
2024-05-26 15:49:46,71,113,117,129,234
2024-05-26 15:49:46,77,122,122,137,235
2024-05-26 15:49:46,69,114,113,128,234
2024-05-26 15:49:46,61,104,106,117,234
2024-05-26 15:49:46,58,102,106,113,235
2024-05-26 15:49:46,72,115,120,128,234
2024-05-26 15:49:46,82,124,128,139,234
2024-05-26 15:49:46,81,123,124,135,235
2024-05-26 15:49:46,77,115,119,127,234
2024-05-26 15:49:46,74,112,116,121,234
2024-05-26 15:49:46,71,107,111,116,234
2024-05-26 15:49:46,79,115,119,124,234
2024-05-26 15:49:46,83,118,123,127,232
2024-05-26 15:49:46,82,117,120,123,234
2024-05-26 15:49:46,79,114,115,117,234
2024-05-26 15:49:46,79,114,114,116,235
2024-05-26 15:49:46,80,114,113,116,234
2024-05-26 15:49:46,84,116,116,119,234
2024-05-26 15:49:46,86,116,116,120,234
2024-05-26 15:49:46,87,115,115,118,234
2024-05-26 15:49:46,91,119,119,121,234
2024-05-26 15:49:46,95,121,121,122,234
2024-05-26 15:49:46,96,121,121,122,234
2024-05-26 15:49:46,97,122,121,122,234
2024-05-26 15:49:46,97,122,121,121,234
2024-05-26 15:49:46,95,123,120,119,234
2024-05-26 15:49:46,91,120,117,116,234
2024-05-26 15:49:46,86,115,113,110,234
2024-05-26 15:49:46,81,111,109,105,235
2024-05-26 15:49:46,80,113,107,106,234
2024-05-26 15:49:46,79,116,103,109,234
2024-05-26 15:49:46,81,116,111,114,234
2024-05-26 15:49:46,86,118,122,121,235
2024-05-26 15:49:46,82,115,119,118,234
2024-05-26 15:49:46,71,107,108,110,234
2024-05-26 15:49:46,65,104,102,108,234
2024-05-26 15:49:46,73,113,111,120,233
2024-05-26 15:49:46,83,123,121,132,234
2024-05-26 15:49:46,84,124,123,134,235
2024-05-26 15:49:46,86,126,124,135,234
2024-05-26 15:49:46,87,128,127,137,234
2024-05-26 15:49:46,85,127,125,136,234
2024-05-26 15:49:46,82,125,122,133,234
2024-05-26 15:49:46,76,119,118,128,234
2024-05-26 15:49:46,67,113,111,121,235
2024-05-26 15:49:46,63,107,107,117,234
2024-05-26 15:49:46,62,106,106,116,234
2024-05-26 15:49:46,62,106,107,116,235
2024-05-26 15:49:46,64,108,108,116,235
2024-05-26 15:49:46,67,110,110,119,234
2024-05-26 15:49:46,72,115,114,124,234
2024-05-26 15:49:46,73,116,114,128,235
2024-05-26 15:49:47,69,111,110,124,234
2024-05-26 15:49:47,63,105,104,118,235
2024-05-26 15:49:47,61,103,101,116,234
2024-05-26 15:49:47,62,103,103,118,234
2024-05-26 15:49:47,64,105,106,119,234
2024-05-26 15:49:47,63,104,105,117,234
2024-05-26 15:49:47,66,108,107,120,234
2024-05-26 15:49:47,74,116,114,128,234
2024-05-26 15:49:47,81,123,121,137,234
2024-05-26 15:49:47,84,127,122,140,234
2024-05-26 15:49:47,83,126,121,137,235
2024-05-26 15:49:47,84,122,123,134,235
2024-05-26 15:49:47,91,129,130,139,234
2024-05-26 15:49:47,98,135,136,146,234
2024-05-26 15:49:47,100,138,136,147,234
2024-05-26 15:49:47,96,135,132,144,235
2024-05-26 15:49:47,83,122,119,130,234
2024-05-26 15:49:47,60,99,96,105,234
2024-05-26 15:49:47,45,84,81,90,234
2024-05-26 15:49:47,49,89,88,99,234
2024-05-26 15:49:47,61,101,100,112,234
2024-05-26 15:49:47,67,106,106,120,234
2024-05-26 15:49:47,71,108,109,121,235
2024-05-26 15:49:47,73,109,111,123,234
2024-05-26 15:49:47,71,108,108,121,234
2024-05-26 15:49:47,68,104,104,116,234
2024-05-26 15:49:47,67,105,102,115,234
2024-05-26 15:49:47,69,107,104,116,234
2024-05-26 15:49:47,73,109,109,120,235
2024-05-26 15:49:47,73,109,109,120,234
2024-05-26 15:49:47,68,105,105,113,235
2024-05-26 15:49:47,65,103,103,111,234
2024-05-26 15:49:47,66,102,103,111,234
2024-05-26 15:49:47,72,107,108,118,234
2024-05-26 15:49:47,80,114,116,126,234
2024-05-26 15:49:47,86,119,122,131,234
2024-05-26 15:49:47,88,122,125,133,235
2024-05-26 15:49:47,85,120,122,130,234
2024-05-26 15:49:47,77,113,113,121,235
2024-05-26 15:49:47,70,106,106,113,234
2024-05-26 15:49:47,64,99,102,106,234
2024-05-26 15:49:47,59,95,98,100,234
2024-05-26 15:49:47,60,95,97,100,234
2024-05-26 15:49:47,66,103,105,109,234
2024-05-26 15:49:47,78,112,117,122,235
2024-05-26 15:49:47,82,115,121,127,234
2024-05-26 15:49:47,81,114,118,123,234
2024-05-26 15:49:47,79,111,113,119,234
2024-05-26 15:49:47,81,113,115,118,235
2024-05-26 15:49:47,84,115,118,121,234
2024-05-26 15:49:47,85,116,119,122,235
2024-05-26 15:49:47,83,113,116,119,235
2024-05-26 15:49:47,82,113,114,118,234
2024-05-26 15:49:47,82,113,115,120,234
2024-05-26 15:49:47,84,112,116,122,234
2024-05-26 15:49:47,89,115,121,126,235
2024-05-26 15:49:47,93,116,125,126,234
2024-05-26 15:49:47,91,113,123,119,234
2024-05-26 15:49:47,89,110,118,112,235
2024-05-26 15:49:47,95,117,123,116,234
2024-05-26 15:49:47,104,124,131,122,234
2024-05-26 15:49:47,104,123,130,119,234
2024-05-26 15:49:47,100,119,125,110,235
2024-05-26 15:49:47,98,117,123,104,234
2024-05-26 15:49:47,99,118,124,103,234
2024-05-26 15:49:47,98,118,123,101,235
2024-05-26 15:49:47,96,115,120,96,234
2024-05-26 15:49:47,95,112,117,91,234
2024-05-26 15:49:47,92,108,115,85,234
2024-05-26 15:49:47,92,106,114,82,234
2024-05-26 15:49:47,92,105,115,81,234
2024-05-26 15:49:47,90,102,112,77,234
2024-05-26 15:49:47,87,99,109,72,235
2024-05-26 15:49:47,87,99,108,69,234
2024-05-26 15:49:47,85,99,106,65,234
2024-05-26 15:49:47,83,99,104,62,235
2024-05-26 15:49:47,81,96,101,57,234
2024-05-26 15:49:47,80,95,100,55,235
2024-05-26 15:49:47,85,100,105,60,235
2024-05-26 15:49:47,93,106,111,67,235
2024-05-26 15:49:47,97,110,113,71,234
2024-05-26 15:49:47,95,106,111,67,235
2024-05-26 15:49:47,91,99,105,58,235
2024-05-26 15:49:47,91,98,102,56,234
2024-05-26 15:49:47,98,103,106,61,234
2024-05-26 15:49:47,99,102,103,60,232
2024-05-26 15:49:47,94,94,97,53,234
2024-05-26 15:49:47,90,86,93,45,234
2024-05-26 15:49:47,91,86,94,43,234
2024-05-26 15:49:47,91,87,93,41,235
2024-05-26 15:49:47,91,86,92,40,234
2024-05-26 15:49:47,93,88,94,40,234
2024-05-26 15:49:47,102,95,102,48,234
2024-05-26 15:49:47,110,101,108,54,234
2024-05-26 15:49:47,110,102,108,54,234
2024-05-26 15:49:47,107,100,105,52,234
2024-05-26 15:49:47,108,100,103,50,234
2024-05-26 15:49:47,107,98,102,48,234
2024-05-26 15:49:47,109,100,104,51,234
2024-05-26 15:49:47,113,103,107,54,235
2024-05-26 15:49:47,111,101,104,52,234
2024-05-26 15:49:47,109,99,101,48,234
2024-05-26 15:49:47,113,104,108,55,234
2024-05-26 15:49:47,119,110,114,62,234
2024-05-26 15:49:47,116,109,111,59,235
2024-05-26 15:49:47,111,107,106,55,235
2024-05-26 15:49:47,106,102,100,50,234
2024-05-26 15:49:47,106,102,98,51,234
2024-05-26 15:49:47,111,106,106,57,234
2024-05-26 15:49:47,115,108,114,62,234
2024-05-26 15:49:47,111,103,110,57,235
2024-05-26 15:49:47,105,97,103,48,234
2024-05-26 15:49:47,102,95,100,45,234
2024-05-26 15:49:47,109,104,108,55,235
2024-05-26 15:49:47,113,109,114,62,234
2024-05-26 15:49:47,110,107,112,58,234
2024-05-26 15:49:47,107,105,107,54,234
2024-05-26 15:49:47,106,105,107,53,234
2024-05-26 15:49:47,109,108,111,58,234
2024-05-26 15:49:47,111,111,114,61,235
2024-05-26 15:49:47,107,106,109,56,235
2024-05-26 15:49:47,98,98,99,48,234
2024-05-26 15:49:47,96,96,97,45,234
2024-05-26 15:49:47,102,103,104,54,235
2024-05-26 15:49:47,106,107,108,59,234
2024-05-26 15:49:47,111,111,112,64,235
2024-05-26 15:49:47,112,112,112,64,234
2024-05-26 15:49:47,109,107,109,60,234
2024-05-26 15:49:47,106,104,105,57,234
2024-05-26 15:49:47,105,102,104,56,234
2024-05-26 15:49:47,102,101,103,56,235
2024-05-26 15:49:47,100,99,101,55,234
2024-05-26 15:49:47,100,100,101,55,234
2024-05-26 15:49:47,99,101,101,57,234
2024-05-26 15:49:47,101,103,104,60,234
2024-05-26 15:49:47,103,105,105,63,234
2024-05-26 15:49:47,101,102,103,60,234
2024-05-26 15:49:47,103,103,105,63,234
2024-05-26 15:49:47,109,108,109,69,235
2024-05-26 15:49:47,114,110,112,74,234
2024-05-26 15:49:47,113,109,111,74,235
2024-05-26 15:49:47,111,106,108,71,234
2024-05-26 15:49:47,110,106,106,69,234
2024-05-26 15:49:47,111,106,108,72,234
2024-05-26 15:49:47,118,114,115,81,235
2024-05-26 15:49:47,123,119,122,91,235
2024-05-26 15:49:47,117,115,117,86,235
2024-05-26 15:49:47,113,115,114,83,234
2024-05-26 15:49:47,120,123,124,92,234
2024-05-26 15:49:47,131,134,136,106,235
2024-05-26 15:49:47,138,140,142,115,235
2024-05-26 15:49:47,136,137,140,112,235
2024-05-26 15:49:47,123,125,125,95,234
2024-05-26 15:49:47,107,109,108,75,234
2024-05-26 15:49:47,94,96,96,63,234
2024-05-26 15:49:47,92,92,93,62,234
2024-05-26 15:49:47,92,93,93,64,234
2024-05-26 15:49:47,98,98,101,72,234
2024-05-26 15:49:47,109,110,114,84,235
2024-05-26 15:49:47,114,115,119,91,234
2024-05-26 15:49:47,114,115,117,90,234
2024-05-26 15:49:47,109,109,111,83,234
2024-05-26 15:49:47,106,105,108,79,234
2024-05-26 15:49:47,109,108,111,82,234
2024-05-26 15:49:47,112,110,114,86,234
2024-05-26 15:49:47,115,113,117,89,235
2024-05-26 15:49:47,118,116,120,92,234
2024-05-26 15:49:47,121,116,121,94,234
2024-05-26 15:49:47,127,121,127,101,235
2024-05-26 15:49:47,130,123,129,103,234
2024-05-26 15:49:47,130,122,129,103,234
2024-05-26 15:49:47,127,118,125,100,234
2024-05-26 15:49:47,120,106,114,88,234
2024-05-26 15:49:47,116,101,110,83,234
2024-05-26 15:49:47,119,103,112,87,235
2024-05-26 15:49:47,124,109,118,95,234
2024-05-26 15:49:47,127,111,119,98,234
2024-05-26 15:49:47,129,112,118,100,235
2024-05-26 15:49:47,132,113,117,100,234
2024-05-26 15:49:47,135,112,118,101,234
2024-05-26 15:49:47,136,111,120,101,234
2024-05-26 15:49:47,137,110,121,99,235
2024-05-26 15:49:47,136,110,121,100,234
2024-05-26 15:49:47,140,113,123,105,234
2024-05-26 15:49:47,146,120,127,114,235
2024-05-26 15:49:47,150,125,129,120,234
2024-05-26 15:49:47,150,123,131,120,235
2024-05-26 15:49:47,151,122,134,120,235
2024-05-26 15:49:47,151,122,134,121,234
2024-05-26 15:49:47,152,122,133,121,235
2024-05-26 15:49:47,149,117,128,117,234
2024-05-26 15:49:47,145,113,124,113,234
2024-05-26 15:49:47,147,115,126,115,235
2024-05-26 15:49:47,155,122,132,124,234
2024-05-26 15:49:47,160,127,138,130,234
2024-05-26 15:49:47,159,128,139,131,235
2024-05-26 15:49:47,158,126,135,128,234
2024-05-26 15:49:47,158,126,133,126,234
2024-05-26 15:49:47,161,128,134,128,234
2024-05-26 15:49:47,169,135,142,137,234
2024-05-26 15:49:47,169,133,142,137,234
2024-05-26 15:49:47,162,126,133,129,235
2024-05-26 15:49:47,155,119,124,122,235
2024-05-26 15:49:47,154,119,122,122,234
2024-05-26 15:49:47,158,122,126,127,234
2024-05-26 15:49:47,160,122,130,129,234
2024-05-26 15:49:47,155,118,126,125,234
2024-05-26 15:49:47,151,112,120,119,235
2024-05-26 15:49:47,149,110,116,117,235
2024-05-26 15:49:47,149,111,116,118,235
2024-05-26 15:49:47,151,114,120,121,232
2024-05-26 15:49:47,150,113,122,120,234
2024-05-26 15:49:47,149,112,120,118,235
2024-05-26 15:49:47,154,116,124,122,234
2024-05-26 15:49:47,155,117,125,123,235
2024-05-26 15:49:47,151,113,121,119,235
2024-05-26 15:49:47,145,107,115,112,235
2024-05-26 15:49:47,143,106,114,110,234
2024-05-26 15:49:47,145,108,116,112,234
2024-05-26 15:49:47,147,109,116,114,234
2024-05-26 15:49:47,148,109,114,113,234
2024-05-26 15:49:47,152,111,117,114,234
2024-05-26 15:49:47,154,114,119,117,235
2024-05-26 15:49:47,157,116,121,119,234
2024-05-26 15:49:47,158,117,121,119,234
2024-05-26 15:49:47,156,113,118,115,235
2024-05-26 15:49:47,152,109,113,110,235
2024-05-26 15:49:47,153,108,112,108,234
2024-05-26 15:49:47,158,112,115,111,235
2024-05-26 15:49:47,162,114,118,114,234
2024-05-26 15:49:47,161,112,115,111,234
2024-05-26 15:49:47,163,114,116,113,235
2024-05-26 15:49:47,166,118,120,117,234
2024-05-26 15:49:47,167,121,122,119,234
2024-05-26 15:49:47,163,116,116,113,235
2024-05-26 15:49:47,159,114,112,109,235
2024-05-26 15:49:47,160,116,113,110,234
2024-05-26 15:49:47,163,118,113,112,234
2024-05-26 15:49:47,161,118,111,110,234
2024-05-26 15:49:47,161,120,110,110,235
2024-05-26 15:49:47,162,120,112,110,234
2024-05-26 15:49:47,164,122,116,111,234
2024-05-26 15:49:47,166,121,118,111,235
2024-05-26 15:49:47,168,121,119,112,234
2024-05-26 15:49:47,170,123,121,115,235
2024-05-26 15:49:47,167,122,119,114,235
2024-05-26 15:49:47,159,115,109,105,235
2024-05-26 15:49:47,151,108,103,99,235
2024-05-26 15:49:47,151,109,106,101,234
2024-05-26 15:49:47,161,119,117,112,234
2024-05-26 15:49:48,165,123,121,116,235
2024-05-26 15:49:48,165,121,118,113,234
2024-05-26 15:49:48,166,122,117,112,234
2024-05-26 15:49:48,171,126,119,114,234
2024-05-26 15:49:48,173,125,118,114,234
2024-05-26 15:49:48,174,121,117,112,234
2024-05-26 15:49:48,171,115,113,107,234
2024-05-26 15:49:48,168,111,109,102,234
2024-05-26 15:49:48,171,112,109,104,235
2024-05-26 15:49:48,178,119,117,112,234
2024-05-26 15:49:48,182,122,120,117,234
2024-05-26 15:49:48,179,117,114,113,235
2024-05-26 15:49:48,176,114,110,110,234
2024-05-26 15:49:48,175,113,109,108,234
2024-05-26 15:49:48,175,113,108,109,234
2024-05-26 15:49:48,176,114,109,110,235
2024-05-26 15:49:48,175,113,108,109,234
2024-05-26 15:49:48,173,112,108,107,234
2024-05-26 15:49:48,172,111,107,106,234
2024-05-26 15:49:48,174,114,109,109,235
2024-05-26 15:49:48,175,118,113,113,235
2024-05-26 15:49:48,176,121,116,117,234
2024-05-26 15:49:48,174,118,114,116,234
2024-05-26 15:49:48,169,115,112,113,234
2024-05-26 15:49:48,165,112,110,111,234
2024-05-26 15:49:48,165,111,110,112,235
2024-05-26 15:49:48,162,109,107,109,234
2024-05-26 15:49:48,166,114,111,115,234
2024-05-26 15:49:48,174,123,118,126,235
2024-05-26 15:49:48,177,125,122,131,234
2024-05-26 15:49:48,174,121,121,128,234
2024-05-26 15:49:48,168,115,117,121,234
2024-05-26 15:49:48,168,116,116,121,234
2024-05-26 15:49:48,175,122,123,130,235
2024-05-26 15:49:48,180,127,128,137,234
2024-05-26 15:49:48,186,133,132,144,235
2024-05-26 15:49:48,185,133,130,143,234
2024-05-26 15:49:48,176,124,124,132,234
2024-05-26 15:49:48,173,119,121,128,234
2024-05-26 15:49:48,172,114,117,125,234
2024-05-26 15:49:48,166,107,110,120,234
2024-05-26 15:49:48,160,102,104,115,235
2024-05-26 15:49:48,160,102,104,115,235
2024-05-26 15:49:48,167,109,111,123,235
2024-05-26 15:49:48,172,114,115,128,234
2024-05-26 15:49:48,169,112,111,127,234
2024-05-26 15:49:48,168,111,110,125,234
2024-05-26 15:49:48,172,116,114,130,234
2024-05-26 15:49:48,175,120,119,136,234
2024-05-26 15:49:48,175,122,120,138,235
2024-05-26 15:49:48,176,124,121,141,234
2024-05-26 15:49:48,174,123,119,138,234
2024-05-26 15:49:48,168,117,112,131,235
2024-05-26 15:49:48,167,117,113,131,234
2024-05-26 15:49:48,175,126,123,142,235
2024-05-26 15:49:48,187,139,135,156,235
2024-05-26 15:49:48,185,137,134,155,234
2024-05-26 15:49:48,172,125,119,139,235
2024-05-26 15:49:48,160,113,106,125,235
2024-05-26 15:49:48,155,109,104,121,235
2024-05-26 15:49:48,164,116,114,131,234
2024-05-26 15:49:48,168,120,119,137,234
2024-05-26 15:49:48,167,119,120,137,234
2024-05-26 15:49:48,169,120,121,139,235
2024-05-26 15:49:48,172,122,122,143,235
2024-05-26 15:49:48,167,115,120,137,234
2024-05-26 15:49:48,161,107,116,130,234
2024-05-26 15:49:48,163,109,118,134,235
2024-05-26 15:49:48,170,117,125,145,235
2024-05-26 15:49:48,176,124,131,155,234
2024-05-26 15:49:48,178,126,133,157,234
2024-05-26 15:49:48,173,122,128,151,234
2024-05-26 15:49:48,169,120,124,146,235
2024-05-26 15:49:48,170,121,125,148,235
2024-05-26 15:49:48,174,125,130,156,235
2024-05-26 15:49:48,177,129,135,162,234
2024-05-26 15:49:48,177,128,133,162,235
2024-05-26 15:49:48,175,126,129,159,234
2024-05-26 15:49:48,174,125,127,156,234
2024-05-26 15:49:48,173,124,126,156,234
2024-05-26 15:49:48,173,123,126,158,234
2024-05-26 15:49:48,172,122,124,156,234
2024-05-26 15:49:48,168,118,120,151,235
2024-05-26 15:49:48,169,119,120,151,234
2024-05-26 15:49:48,177,127,127,161,234
2024-05-26 15:49:48,178,129,127,162,234
2024-05-26 15:49:48,173,125,123,158,234
2024-05-26 15:49:48,169,123,120,154,234
2024-05-26 15:49:48,166,122,119,153,235
2024-05-26 15:49:48,169,127,122,157,234
2024-05-26 15:49:48,171,130,125,161,234
2024-05-26 15:49:48,168,124,122,156,234
2024-05-26 15:49:48,163,117,118,149,234
2024-05-26 15:49:48,162,115,117,146,234
2024-05-26 15:49:48,161,116,116,146,235
2024-05-26 15:49:48,160,115,114,144,234
2024-05-26 15:49:48,156,110,112,140,235
2024-05-26 15:49:48,153,106,109,135,234
2024-05-26 15:49:48,153,106,110,133,235
2024-05-26 15:49:48,158,111,114,138,234
2024-05-26 15:49:48,158,112,113,139,234
2024-05-26 15:49:48,152,106,107,132,234
2024-05-26 15:49:48,144,98,98,122,235
2024-05-26 15:49:48,141,95,93,118,234
2024-05-26 15:49:48,144,98,96,121,235
2024-05-26 15:49:48,147,102,101,125,234
2024-05-26 15:49:48,145,100,101,124,234
2024-05-26 15:49:48,143,98,100,121,234
2024-05-26 15:49:48,145,100,101,124,234
2024-05-26 15:49:48,146,104,104,127,235
2024-05-26 15:49:48,144,103,103,128,234
2024-05-26 15:49:48,143,105,104,130,235
2024-05-26 15:49:48,141,104,104,130,234
2024-05-26 15:49:48,135,100,100,127,234
2024-05-26 15:49:48,127,95,96,123,234
2024-05-26 15:49:48,121,93,94,120,234
2024-05-26 15:49:48,123,94,96,123,234
2024-05-26 15:49:48,125,97,99,125,234
2024-05-26 15:49:48,126,99,101,128,235
2024-05-26 15:49:48,132,106,108,135,234
2024-05-26 15:49:48,133,108,111,137,234
2024-05-26 15:49:48,130,105,108,134,235
2024-05-26 15:49:48,125,102,105,130,234
2024-05-26 15:49:48,129,108,108,136,234
2024-05-26 15:49:48,136,118,116,145,235
2024-05-26 15:49:48,135,116,118,145,234
2024-05-26 15:49:48,130,111,115,141,234
2024-05-26 15:49:48,126,106,111,136,234
2024-05-26 15:49:48,123,104,109,134,234
2024-05-26 15:49:48,121,103,109,135,235
2024-05-26 15:49:48,124,105,112,138,234
2024-05-26 15:49:48,124,106,113,139,235
2024-05-26 15:49:48,123,107,112,139,235
2024-05-26 15:49:48,126,109,113,140,235
2024-05-26 15:49:48,128,112,114,142,234
2024-05-26 15:49:48,133,118,119,148,234
2024-05-26 15:49:48,135,120,121,151,234
2024-05-26 15:49:48,127,112,112,141,235
2024-05-26 15:49:48,118,103,104,131,234
2024-05-26 15:49:48,118,104,105,131,234
2024-05-26 15:49:48,125,110,113,140,234
2024-05-26 15:49:48,126,112,117,143,234
2024-05-26 15:49:48,122,110,114,140,234
2024-05-26 15:49:48,121,110,114,138,234
2024-05-26 15:49:48,121,112,116,140,235
2024-05-26 15:49:48,122,113,118,142,234
2024-05-26 15:49:48,119,109,113,137,235
2024-05-26 15:49:48,119,108,112,138,235
2024-05-26 15:49:48,122,112,116,142,235
2024-05-26 15:49:48,125,115,119,146,235
2024-05-26 15:49:48,122,115,115,143,234
2024-05-26 15:49:48,121,114,112,142,234
2024-05-26 15:49:48,122,113,115,141,234
2024-05-26 15:49:48,122,112,117,140,235
2024-05-26 15:49:48,122,112,118,140,235
2024-05-26 15:49:48,119,111,115,137,235
2024-05-26 15:49:48,114,105,108,130,235
2024-05-26 15:49:48,115,107,109,129,234
2024-05-26 15:49:48,120,114,116,136,235
2024-05-26 15:49:48,123,119,120,141,235
2024-05-26 15:49:48,122,119,121,141,234
2024-05-26 15:49:48,116,114,115,135,235
2024-05-26 15:49:48,113,113,114,133,234
2024-05-26 15:49:48,112,112,114,132,234
2024-05-26 15:49:48,113,114,116,132,234
2024-05-26 15:49:48,111,113,115,132,235
2024-05-26 15:49:48,110,112,114,130,234
2024-05-26 15:49:48,114,117,120,133,234
2024-05-26 15:49:48,119,122,124,138,234
2024-05-26 15:49:48,123,129,129,144,234
2024-05-26 15:49:48,128,133,133,150,235
2024-05-26 15:49:48,133,138,138,155,234
2024-05-26 15:49:48,133,138,136,154,234
2024-05-26 15:49:48,128,132,131,149,234
2024-05-26 15:49:48,125,129,128,147,234
2024-05-26 15:49:48,119,123,123,141,234
2024-05-26 15:49:48,104,107,107,125,234
2024-05-26 15:49:48,89,93,91,110,234
2024-05-26 15:49:48,92,97,95,117,234
2024-05-26 15:49:48,102,108,108,132,234
2024-05-26 15:49:48,111,116,118,143,235
2024-05-26 15:49:48,111,117,118,143,234
2024-05-26 15:49:48,108,115,115,139,234
2024-05-26 15:49:48,104,114,111,136,235
2024-05-26 15:49:48,104,112,113,137,234
2024-05-26 15:49:48,107,113,120,142,235
2024-05-26 15:49:48,109,117,125,145,234
2024-05-26 15:49:48,105,115,122,142,234
2024-05-26 15:49:48,101,116,120,140,235
2024-05-26 15:49:48,105,123,127,147,235
2024-05-26 15:49:48,104,125,129,149,234
2024-05-26 15:49:48,100,124,129,146,234
2024-05-26 15:49:48,91,116,121,137,234
2024-05-26 15:49:48,79,107,110,125,234
2024-05-26 15:49:48,77,107,110,127,234
2024-05-26 15:49:48,81,113,116,135,235
2024-05-26 15:49:48,84,117,121,141,235
2024-05-26 15:49:48,83,119,123,143,235
2024-05-26 15:49:48,78,117,120,139,234
2024-05-26 15:49:48,76,119,122,140,235
2024-05-26 15:49:48,76,121,125,143,234
2024-05-26 15:49:48,73,121,124,143,234
2024-05-26 15:49:48,69,119,122,141,234
2024-05-26 15:49:48,61,114,117,136,234
2024-05-26 15:49:48,61,117,119,139,234
2024-05-26 15:49:48,62,121,122,144,235
2024-05-26 15:49:48,59,119,122,142,234
2024-05-26 15:49:48,56,118,121,140,235
2024-05-26 15:49:48,57,121,124,143,234
2024-05-26 15:49:48,60,125,126,147,235
2024-05-26 15:49:48,60,127,126,149,232
2024-05-26 15:49:48,58,127,126,148,234
2024-05-26 15:49:48,55,124,126,146,234
2024-05-26 15:49:48,51,123,126,145,234
2024-05-26 15:49:48,51,125,127,148,234
2024-05-26 15:49:48,49,125,126,148,235
2024-05-26 15:49:48,47,126,125,147,234
2024-05-26 15:49:48,42,121,123,142,235
2024-05-26 15:49:48,34,115,119,135,234
2024-05-26 15:49:48,39,123,126,143,234
2024-05-26 15:49:48,46,133,135,153,234
2024-05-26 15:49:48,44,133,133,151,234
2024-05-26 15:49:48,37,129,128,143,235
2024-05-26 15:49:48,127,124,139,235,235
2024-05-26 15:49:48,30,126,124,139,235
2024-05-26 15:49:48,27,125,123,137,234
2024-05-26 15:49:48,23,124,121,134,234
2024-05-26 15:49:48,20,122,120,132,234
2024-05-26 15:49:48,17,121,119,130,235
2024-05-26 15:49:48,14,119,118,128,234
2024-05-26 15:49:48,5,113,111,121,235
2024-05-26 15:49:48,0,104,101,110,234
2024-05-26 15:49:48,0,99,95,103,234
2024-05-26 15:49:48,0,107,104,111,234
2024-05-26 15:49:48,0,114,112,120,234
2024-05-26 15:49:48,0,118,116,124,234
2024-05-26 15:49:48,0,117,115,121,235
2024-05-26 15:49:48,0,115,112,118,234
2024-05-26 15:49:48,0,115,112,117,234
2024-05-26 15:49:48,0,116,114,116,234
2024-05-26 15:49:48,0,117,114,116,234
2024-05-26 15:49:48,0,114,111,111,234
2024-05-26 15:49:48,0,110,107,106,234
2024-05-26 15:49:48,0,109,106,105,234
2024-05-26 15:49:48,0,107,103,103,234
2024-05-26 15:49:48,0,103,98,98,235
2024-05-26 15:49:48,0,104,102,102,234
2024-05-26 15:49:48,0,111,110,109,235
2024-05-26 15:49:48,0,114,114,111,234
2024-05-26 15:49:48,0,116,114,110,234
2024-05-26 15:49:49,0,118,113,109,234
2024-05-26 15:49:49,0,117,110,107,234
2024-05-26 15:49:49,0,109,107,99,235
2024-05-26 15:49:49,0,102,106,92,234
2024-05-26 15:49:49,0,105,111,95,235
2024-05-26 15:49:49,0,113,117,105,234
2024-05-26 15:49:49,0,120,123,113,234
2024-05-26 15:49:49,0,121,123,113,234
2024-05-26 15:49:49,0,116,117,107,234
2024-05-26 15:49:49,0,113,112,102,235
2024-05-26 15:49:49,0,113,115,102,234
2024-05-26 15:49:49,0,107,111,97,234
2024-05-26 15:49:49,0,105,108,94,234
2024-05-26 15:49:49,0,107,110,98,234
2024-05-26 15:49:49,0,110,113,103,235
2024-05-26 15:49:49,0,111,114,104,235
2024-05-26 15:49:49,0,110,110,101,234
2024-05-26 15:49:49,0,106,106,97,235
2024-05-26 15:49:49,0,106,106,97,234
2024-05-26 15:49:49,0,109,110,102,234
2024-05-26 15:49:49,0,108,112,103,234
2024-05-26 15:49:49,0,109,112,103,235
2024-05-26 15:49:49,0,109,110,103,234
2024-05-26 15:49:49,0,110,108,102,234
2024-05-26 15:49:49,0,113,110,106,234
2024-05-26 15:49:49,0,114,112,107,234
2024-05-26 15:49:49,0,107,111,101,235
2024-05-26 15:49:49,0,103,107,97,235
2024-05-26 15:49:49,0,105,110,100,234
2024-05-26 15:49:49,0,116,120,112,235
2024-05-26 15:49:49,0,122,125,119,234
2024-05-26 15:49:49,0,116,118,112,234
2024-05-26 15:49:49,0,105,106,98,234
2024-05-26 15:49:49,0,103,104,95,235
2024-05-26 15:49:49,0,104,105,98,234
2024-05-26 15:49:49,0,107,109,104,235
2024-05-26 15:49:49,0,106,109,103,234
2024-05-26 15:49:49,0,102,104,99,234
2024-05-26 15:49:49,0,103,102,99,234
2024-05-26 15:49:49,0,107,106,102,234
2024-05-26 15:49:49,0,109,108,106,235
2024-05-26 15:49:49,0,109,107,106,234
2024-05-26 15:49:49,0,104,101,100,234
2024-05-26 15:49:49,0,98,95,93,234
2024-05-26 15:49:49,0,101,95,96,234
2024-05-26 15:49:49,0,107,103,106,234
2024-05-26 15:49:49,0,109,108,109,234
2024-05-26 15:49:49,0,104,101,103,234
2024-05-26 15:49:49,0,101,97,97,235
2024-05-26 15:49:49,0,105,102,102,235
2024-05-26 15:49:49,0,109,105,107,234
2024-05-26 15:49:49,0,107,101,103,235
2024-05-26 15:49:49,0,100,94,96,234
2024-05-26 15:49:49,0,102,97,97,235
2024-05-26 15:49:49,0,108,103,104,234
2024-05-26 15:49:49,0,113,107,108,234
2024-05-26 15:49:49,0,114,111,112,234
2024-05-26 15:49:49,0,115,108,111,235
2024-05-26 15:49:49,0,112,107,107,235
2024-05-26 15:49:49,0,110,109,106,234
2024-05-26 15:49:49,0,113,114,111,234
2024-05-26 15:49:49,0,118,117,115,235
2024-05-26 15:49:49,0,124,121,120,235
2024-05-26 15:49:49,0,134,130,131,234
2024-05-26 15:49:49,0,141,138,139,235
2024-05-26 15:49:49,0,134,131,131,234
2024-05-26 15:49:49,0,109,105,102,234
2024-05-26 15:49:49,0,83,78,73,235
2024-05-26 15:49:49,0,76,71,67,235
2024-05-26 15:49:49,0,82,81,77,235
2024-05-26 15:49:49,0,92,94,92,234
2024-05-26 15:49:49,0,98,102,100,235
2024-05-26 15:49:49,0,100,104,102,234
2024-05-26 15:49:49,0,94,98,95,234
2024-05-26 15:49:49,0,94,97,92,235
2024-05-26 15:49:49,0,99,101,98,234
2024-05-26 15:49:49,0,100,102,100,235
2024-05-26 15:49:49,0,101,106,103,234
2024-05-26 15:49:49,0,100,105,101,235
2024-05-26 15:49:49,0,96,101,96,235
2024-05-26 15:49:49,0,92,97,93,234
2024-05-26 15:49:49,0,90,95,92,234
2024-05-26 15:49:49,0,88,93,90,235
2024-05-26 15:49:49,0,89,94,91,234
2024-05-26 15:49:49,0,96,101,99,235
2024-05-26 15:49:49,0,101,104,103,232
2024-05-26 15:49:49,0,96,100,98,235
2024-05-26 15:49:49,0,90,93,91,234
2024-05-26 15:49:49,0,91,95,93,234
2024-05-26 15:49:49,0,95,99,97,234
2024-05-26 15:49:49,0,95,100,98,234
2024-05-26 15:49:49,0,92,96,95,235
2024-05-26 15:49:49,0,92,92,95,234
2024-05-26 15:49:49,0,90,92,97,234
2024-05-26 15:49:49,0,92,102,103,234
2024-05-26 15:49:49,0,95,106,106,234
2024-05-26 15:49:49,0,94,105,104,234
2024-05-26 15:49:49,0,92,103,102,234
2024-05-26 15:49:49,0,91,101,101,235
2024-05-26 15:49:49,0,93,101,103,234
2024-05-26 15:49:49,0,94,103,107,235
2024-05-26 15:49:49,0,97,106,109,235
2024-05-26 15:49:49,0,99,107,111,234
2024-05-26 15:49:49,0,96,103,105,235
2024-05-26 15:49:49,0,90,99,99,234
2024-05-26 15:49:49,0,90,98,99,234
2024-05-26 15:49:49,0,93,102,103,234
2024-05-26 15:49:49,0,94,100,102,235
2024-05-26 15:49:49,0,93,100,103,235
2024-05-26 15:49:49,0,93,102,103,234
2024-05-26 15:49:49,0,92,102,101,235
2024-05-26 15:49:49,0,92,100,99,235
2024-05-26 15:49:49,0,93,102,102,235
2024-05-26 15:49:49,0,99,107,107,235
2024-05-26 15:49:49,0,102,109,109,234
2024-05-26 15:49:49,0,103,110,109,234
2024-05-26 15:49:49,0,99,105,103,235
2024-05-26 15:49:49,0,94,100,98,235
2024-05-26 15:49:49,0,91,99,96,235
2024-05-26 15:49:49,0,85,92,89,234
2024-05-26 15:49:49,0,81,87,84,234
2024-05-26 15:49:49,0,81,87,84,235
2024-05-26 15:49:49,0,82,88,86,234
2024-05-26 15:49:49,0,82,88,86,234
2024-05-26 15:49:49,0,83,88,87,234
2024-05-26 15:49:49,0,86,89,91,235
2024-05-26 15:49:49,0,82,86,90,234
2024-05-26 15:49:49,0,75,80,84,235
2024-05-26 15:49:49,0,73,76,82,234
2024-05-26 15:49:49,0,73,75,82,234
2024-05-26 15:49:49,0,72,75,81,234
2024-05-26 15:49:49,0,74,78,85,234
2024-05-26 15:49:49,0,76,82,88,234
2024-05-26 15:49:49,0,79,85,90,234
2024-05-26 15:49:49,0,80,86,89,234
2024-05-26 15:49:49,0,79,84,87,235
2024-05-26 15:49:49,0,80,82,87,234
2024-05-26 15:49:49,0,76,77,81,235
2024-05-26 15:49:49,0,70,71,74,235
2024-05-26 15:49:49,0,71,73,75,234
2024-05-26 15:49:49,0,75,76,81,235
2024-05-26 15:49:49,0,82,83,88,235
2024-05-26 15:49:49,0,79,82,85,234
2024-05-26 15:49:49,0,77,80,82,234
2024-05-26 15:49:49,0,78,80,83,235
2024-05-26 15:49:49,0,81,83,89,234
2024-05-26 15:49:49,0,84,86,93,234
2024-05-26 15:49:49,0,81,84,90,234
2024-05-26 15:49:49,0,80,82,88,234
2024-05-26 15:49:49,0,80,81,88,234
2024-05-26 15:49:49,0,78,78,86,234
2024-05-26 15:49:49,0,77,76,85,234
2024-05-26 15:49:49,0,82,81,92,235
2024-05-26 15:49:49,0,86,85,97,235
2024-05-26 15:49:49,0,87,87,100,234
2024-05-26 15:49:49,1,88,88,101,234
2024-05-26 15:49:49,5,87,86,98,235
2024-05-26 15:49:49,4,77,80,88,235
2024-05-26 15:49:49,2,72,76,83,234
2024-05-26 15:49:49,3,73,77,84,234
2024-05-26 15:49:49,4,74,76,84,234
2024-05-26 15:49:49,5,74,74,84,235
2024-05-26 15:49:49,1,69,70,79,234
2024-05-26 15:49:49,7,73,74,84,234
2024-05-26 15:49:49,24,88,90,101,235
2024-05-26 15:49:49,34,95,96,109,234
2024-05-26 15:49:49,35,93,92,105,234
2024-05-26 15:49:49,30,81,77,91,234
2024-05-26 15:49:49,34,83,78,94,234
2024-05-26 15:49:49,39,87,81,98,235
2024-05-26 15:49:49,37,84,79,94,234
2024-05-26 15:49:49,30,75,69,85,234
2024-05-26 15:49:49,31,75,67,84,234
2024-05-26 15:49:49,37,81,74,90,234
2024-05-26 15:49:49,48,88,83,99,235
2024-05-26 15:49:49,58,96,91,107,234
2024-05-26 15:49:49,62,93,93,106,234
2024-05-26 15:49:49,59,88,88,101,234
2024-05-26 15:49:49,55,81,80,93,234
2024-05-26 15:49:49,49,73,70,83,235
2024-05-26 15:49:49,50,71,69,82,234
2024-05-26 15:49:49,55,75,72,86,235
2024-05-26 15:49:49,61,81,78,92,234
2024-05-26 15:49:49,65,83,81,94,234
2024-05-26 15:49:49,64,80,79,90,235
2024-05-26 15:49:49,63,78,77,87,234
2024-05-26 15:49:49,64,78,74,85,234
2024-05-26 15:49:49,65,79,73,85,235
2024-05-26 15:49:49,69,83,75,88,235
2024-05-26 15:49:49,70,82,77,88,235
2024-05-26 15:49:49,68,77,74,84,234
2024-05-26 15:49:49,67,74,71,80,235
2024-05-26 15:49:49,72,80,77,87,234
2024-05-26 15:49:49,78,88,81,95,234
2024-05-26 15:49:49,80,88,79,95,234
2024-05-26 15:49:49,81,85,79,93,234
2024-05-26 15:49:49,83,85,81,94,234
2024-05-26 15:49:49,91,92,87,102,235
2024-05-26 15:49:49,99,99,94,112,234
2024-05-26 15:49:49,107,104,100,119,235
2024-05-26 15:49:49,112,106,101,122,235
2024-05-26 15:49:49,117,110,105,128,235
2024-05-26 15:49:49,128,118,115,139,234
2024-05-26 15:49:49,135,124,123,148,234
2024-05-26 15:49:49,127,115,113,140,234
2024-05-26 15:49:49,107,93,90,116,234
2024-05-26 15:49:49,84,69,65,91,235
2024-05-26 15:49:49,77,61,58,83,234
2024-05-26 15:49:49,88,73,70,98,234
2024-05-26 15:49:49,98,81,78,108,234
2024-05-26 15:49:49,99,82,78,108,234
2024-05-26 15:49:49,100,80,76,107,235
2024-05-26 15:49:49,106,84,80,114,235
2024-05-26 15:49:49,113,90,84,122,234
2024-05-26 15:49:49,118,92,87,126,234
2024-05-26 15:49:49,118,91,86,124,235
2024-05-26 15:49:49,118,88,85,122,235
2024-05-26 15:49:49,122,90,89,124,234
2024-05-26 15:49:49,120,88,87,123,235
2024-05-26 15:49:49,119,86,84,120,234
2024-05-26 15:49:49,120,87,82,120,235
2024-05-26 15:49:49,125,91,86,123,234
2024-05-26 15:49:49,131,94,90,127,235
2024-05-26 15:49:49,134,95,92,129,235
2024-05-26 15:49:49,134,92,89,126,235
2024-05-26 15:49:49,130,88,85,121,235
2024-05-26 15:49:49,130,88,81,118,235
2024-05-26 15:49:49,134,91,85,121,234
2024-05-26 15:49:49,139,95,90,127,234
2024-05-26 15:49:49,138,92,88,125,234
2024-05-26 15:49:49,134,86,81,118,234
2024-05-26 15:49:49,135,87,81,119,234
2024-05-26 15:49:49,147,98,92,132,234
2024-05-26 15:49:49,154,104,98,139,235
2024-05-26 15:49:49,157,105,99,140,234
2024-05-26 15:49:49,154,102,96,137,234
2024-05-26 15:49:49,150,97,91,131,234
2024-05-26 15:49:49,149,94,87,127,234
2024-05-26 15:49:49,151,95,90,127,234
2024-05-26 15:49:49,157,100,97,133,234
2024-05-26 15:49:49,159,100,97,132,234
2024-05-26 15:49:49,166,105,102,135,234
2024-05-26 15:49:49,174,112,108,142,234
2024-05-26 15:49:49,179,116,113,145,234
2024-05-26 15:49:49,182,118,114,148,234
2024-05-26 15:49:49,180,113,108,143,234
2024-05-26 15:49:49,172,103,98,131,234
2024-05-26 15:49:49,172,104,98,130,235
2024-05-26 15:49:49,178,108,105,138,234
2024-05-26 15:49:49,184,111,110,143,234
2024-05-26 15:49:49,185,110,107,141,234
2024-05-26 15:49:50,186,110,106,140,235
2024-05-26 15:49:50,189,111,106,140,234
2024-05-26 15:49:50,189,111,105,140,234
2024-05-26 15:49:50,188,109,103,137,234
2024-05-26 15:49:50,187,108,100,134,234
2024-05-26 15:49:50,190,109,101,135,234
2024-05-26 15:49:50,195,111,104,138,235
2024-05-26 15:49:50,200,114,108,142,235
2024-05-26 15:49:50,201,113,106,141,234
2024-05-26 15:49:50,193,105,98,131,235
2024-05-26 15:49:50,187,99,91,124,234
2024-05-26 15:49:50,188,100,92,124,235
2024-05-26 15:49:50,190,101,93,126,234
2024-05-26 15:49:50,188,98,92,123,235
2024-05-26 15:49:50,188,95,91,120,234
2024-05-26 15:49:50,186,92,89,114,234
2024-05-26 15:49:50,192,97,93,120,235
2024-05-26 15:49:50,202,105,102,127,234
2024-05-26 15:49:50,202,102,98,125,235
2024-05-26 15:49:50,196,97,92,117,234
2024-05-26 15:49:50,197,99,93,118,235
2024-05-26 15:49:50,199,101,94,120,234
2024-05-26 15:49:50,198,98,93,117,234
2024-05-26 15:49:50,197,96,94,114,235
2024-05-26 15:49:50,198,96,94,111,235
2024-05-26 15:49:50,199,96,94,111,234
2024-05-26 15:49:50,202,98,97,114,235
2024-05-26 15:49:50,208,102,102,120,234
2024-05-26 15:49:50,212,105,107,124,234
2024-05-26 15:49:50,209,102,102,118,235
2024-05-26 15:49:50,207,99,98,113,234
2024-05-26 15:49:50,210,102,101,114,234
2024-05-26 15:49:50,216,107,106,118,234
2024-05-26 15:49:50,218,107,106,118,234
2024-05-26 15:49:50,215,103,100,114,234
2024-05-26 15:49:50,214,103,99,113,235
2024-05-26 15:49:50,220,108,105,118,234
2024-05-26 15:49:50,224,110,108,121,235
2024-05-26 15:49:50,221,107,102,117,234
2024-05-26 15:49:50,222,108,102,117,235
2024-05-26 15:49:50,226,110,106,120,235
2024-05-26 15:49:50,226,109,107,120,234
2024-05-26 15:49:50,228,110,108,121,234
2024-05-26 15:49:50,226,107,104,116,234
2024-05-26 15:49:50,221,103,97,109,235
2024-05-26 15:49:50,219,100,93,105,234
2024-05-26 15:49:50,223,102,97,108,234
2024-05-26 15:49:50,232,110,107,118,235
2024-05-26 15:49:50,235,114,111,122,235
2024-05-26 15:49:50,235,112,109,120,235
2024-05-26 15:49:50,236,113,107,120,234
2024-05-26 15:49:50,235,117,111,126,235
2024-05-26 15:49:50,235,116,111,126,234
2024-05-26 15:49:50,235,109,104,119,234
2024-05-26 15:49:50,235,106,99,114,234
2024-05-26 15:49:50,236,106,100,113,235
2024-05-26 15:49:50,235,103,99,110,234
2024-05-26 15:49:50,236,107,102,115,234
2024-05-26 15:49:50,236,114,109,124,235
2024-05-26 15:49:50,235,116,112,127,234
2024-05-26 15:49:50,235,116,110,125,234
2024-05-26 15:49:50,235,115,108,124,234
2024-05-26 15:49:50,236,118,111,127,234
2024-05-26 15:49:50,235,121,115,131,234
2024-05-26 15:49:50,235,121,118,133,234
2024-05-26 15:49:50,236,119,116,130,235
2024-05-26 15:49:50,235,118,114,130,234
2024-05-26 15:49:50,235,115,110,128,234
2024-05-26 15:49:50,235,109,105,122,235
2024-05-26 15:49:50,235,108,104,121,235
2024-05-26 15:49:50,235,111,108,123,234
2024-05-26 15:49:50,235,117,112,128,235
2024-05-26 15:49:50,235,116,111,128,235
2024-05-26 15:49:50,235,111,107,124,235
2024-05-26 15:49:50,235,107,101,118,234
2024-05-26 15:49:50,235,109,102,118,234
2024-05-26 15:49:50,235,116,109,124,234
2024-05-26 15:49:50,235,117,113,126,234
2024-05-26 15:49:50,235,112,108,119,234
2024-05-26 15:49:50,235,109,104,114,235
2024-05-26 15:49:50,235,112,107,115,235
2024-05-26 15:49:50,235,120,117,125,234
2024-05-26 15:49:50,235,121,118,126,232
2024-05-26 15:49:50,236,118,116,122,234
2024-05-26 15:49:50,235,114,111,118,234
2024-05-26 15:49:50,236,114,108,116,234
2024-05-26 15:49:50,235,115,110,119,234
2024-05-26 15:49:50,235,118,117,124,234
2024-05-26 15:49:50,235,122,122,127,234
2024-05-26 15:49:50,235,120,121,125,235
2024-05-26 15:49:50,235,120,123,125,234
2024-05-26 15:49:50,235,134,135,138,234
2024-05-26 15:49:50,235,145,146,150,234
2024-05-26 15:49:50,236,150,151,154,234
2024-05-26 15:49:50,235,150,152,153,235
2024-05-26 15:49:50,235,150,150,151,234
2024-05-26 15:49:50,235,147,148,148,235
2024-05-26 15:49:50,235,133,132,133,235
2024-05-26 15:49:50,212,113,110,109,234
2024-05-26 15:49:50,185,102,97,97,234
2024-05-26 15:49:50,169,100,96,96,235
2024-05-26 15:49:50,166,105,102,103,234
2024-05-26 15:49:50,165,111,110,112,234
2024-05-26 15:49:50,161,113,111,113,235
2024-05-26 15:49:50,160,118,116,119,235
2024-05-26 15:49:50,157,122,119,123,235
2024-05-26 15:49:50,149,122,118,122,234
2024-05-26 15:49:50,139,118,114,118,234
2024-05-26 15:49:50,128,114,109,113,235
2024-05-26 15:49:50,117,111,105,110,234
2024-05-26 15:49:50,110,109,104,110,235
2024-05-26 15:49:50,104,109,105,111,234
2024-05-26 15:49:50,109,121,115,124,234
2024-05-26 15:49:50,106,123,116,126,234
2024-05-26 15:49:50,100,121,113,121,235
2024-05-26 15:49:50,94,119,113,119,235
2024-05-26 15:49:50,91,120,117,121,235
2024-05-26 15:49:50,86,122,119,124,234
2024-05-26 15:49:50,83,124,120,127,234
2024-05-26 15:49:50,78,123,119,127,234
2024-05-26 15:49:50,68,118,113,120,235
2024-05-26 15:49:50,60,117,111,118,234
2024-05-26 15:49:50,54,119,113,121,234
2024-05-26 15:49:50,48,121,116,123,234
2024-05-26 15:49:50,37,117,110,119,235
2024-05-26 15:49:50,24,111,104,112,235
2024-05-26 15:49:50,22,116,111,118,234
2024-05-26 15:49:50,24,126,121,130,235
2024-05-26 15:49:50,18,130,127,135,234
2024-05-26 15:49:50,2,124,123,130,235
2024-05-26 15:49:50,0,117,116,121,234
2024-05-26 15:49:50,0,119,116,121,234
2024-05-26 15:49:50,0,123,120,125,234
2024-05-26 15:49:50,0,126,123,127,234
2024-05-26 15:49:50,0,118,116,118,234
2024-05-26 15:49:50,0,111,107,108,234
2024-05-26 15:49:50,0,112,109,110,234
2024-05-26 15:49:50,0,119,116,119,235
2024-05-26 15:49:50,0,125,121,127,234
2024-05-26 15:49:50,0,128,123,130,234
2024-05-26 15:49:50,0,128,123,130,234
2024-05-26 15:49:50,0,127,123,128,235
2024-05-26 15:49:50,0,123,123,125,234
2024-05-26 15:49:50,0,117,117,118,234
2024-05-26 15:49:50,0,114,113,113,234
2024-05-26 15:49:50,0,116,114,116,235
2024-05-26 15:49:50,0,117,116,117,235
2024-05-26 15:49:50,0,120,119,120,234
2024-05-26 15:49:50,0,117,116,118,235
2024-05-26 15:49:50,0,109,107,108,235
2024-05-26 15:49:50,0,105,104,102,235
2024-05-26 15:49:50,0,107,109,104,234
2024-05-26 15:49:50,0,111,114,109,234
2024-05-26 15:49:50,0,109,110,107,237
2024-05-26 15:49:50,0,100,97,97,234
2024-05-26 15:49:50,0,94,90,92,235
2024-05-26 15:49:50,0,89,88,90,235
2024-05-26 15:49:50,0,91,91,95,234
2024-05-26 15:49:50,0,100,99,106,234
2024-05-26 15:49:50,0,103,102,109,234
2024-05-26 15:49:50,0,97,96,103,234
2024-05-26 15:49:50,0,94,95,101,235
2024-05-26 15:49:50,0,99,99,107,234
2024-05-26 15:49:50,0,99,97,106,234
2024-05-26 15:49:50,0,88,86,94,234
2024-05-26 15:49:50,0,82,79,86,235
2024-05-26 15:49:50,0,77,74,82,235
2024-05-26 15:49:50,0,79,76,84,234
2024-05-26 15:49:50,0,80,77,87,235
2024-05-26 15:49:50,0,78,75,86,234
2024-05-26 15:49:50,0,75,71,83,234
2024-05-26 15:49:50,0,74,69,83,234
2024-05-26 15:49:50,0,73,68,83,234
2024-05-26 15:49:50,0,69,67,79,234
2024-05-26 15:49:50,0,68,68,80,234
2024-05-26 15:49:50,0,73,73,87,233
2024-05-26 15:49:50,0,77,77,91,235
2024-05-26 15:49:50,0,78,79,92,234
2024-05-26 15:49:50,0,75,74,89,235
2024-05-26 15:49:50,0,69,65,83,234
2024-05-26 15:49:50,66,57,78,234,234
2024-05-26 15:49:50,62,65,60,78,234
2024-05-26 15:49:50,98,63,64,78,234
2024-05-26 15:49:50,115,56,59,71,234
2024-05-26 15:49:50,117,51,54,67,235
2024-05-26 15:49:50,115,55,53,72,234
2024-05-26 15:49:50,114,60,58,77,235
2024-05-26 15:49:50,114,58,56,75,235
2024-05-26 15:49:50,114,55,53,72,234
2024-05-26 15:49:50,114,52,50,70,234
2024-05-26 15:49:50,115,51,48,69,235
2024-05-26 15:49:50,115,48,47,69,234
2024-05-26 15:49:50,115,50,46,71,234
2024-05-26 15:49:50,115,50,45,70,234
2024-05-26 15:49:50,115,46,42,65,234
2024-05-26 15:49:50,115,44,39,60,235
2024-05-26 15:49:50,115,44,39,61,234
2024-05-26 15:49:50,115,44,39,60,234
2024-05-26 15:49:50,115,40,35,56,235
2024-05-26 15:49:50,115,36,30,52,234
2024-05-26 15:49:50,116,36,29,52,234
2024-05-26 15:49:50,115,45,38,62,234
2024-05-26 15:49:50,116,48,41,65,234
2024-05-26 15:49:50,115,43,35,60,235
2024-05-26 15:49:50,115,33,24,48,235
2024-05-26 15:49:50,115,27,18,42,234
2024-05-26 15:49:50,113,32,28,50,234
2024-05-26 15:49:50,102,36,35,58,232
2024-05-26 15:49:50,74,35,33,57,234
2024-05-26 15:49:50,37,26,23,48,234
2024-05-26 15:49:50,0,18,12,40,235
2024-05-26 15:49:50,0,17,12,41,234
2024-05-26 15:49:50,0,23,20,49,235
2024-05-26 15:49:50,0,24,21,51,234
2024-05-26 15:49:50,0,17,13,44,234
2024-05-26 15:49:50,0,13,6,39,235
2024-05-26 15:49:50,0,14,5,42,234
2024-05-26 15:49:50,0,15,8,45,235
2024-05-26 15:49:50,0,14,6,43,234
2024-05-26 15:49:50,0,14,6,44,235
2024-05-26 15:49:50,0,13,6,43,234
2024-05-26 15:49:50,0,12,5,43,235
2024-05-26 15:49:50,0,12,4,43,235
2024-05-26 15:49:50,0,12,4,43,235
2024-05-26 15:49:50,2,41,235,43,235
2024-05-26 15:49:50,0,3,0,35,234
2024-05-26 15:49:50,0,0,0,30,234
2024-05-26 15:49:50,0,3,0,37,234
2024-05-26 15:49:50,0,12,2,46,234
2024-05-26 15:49:50,0,8,0,43,234
2024-05-26 15:49:50,0,3,0,38,234
2024-05-26 15:49:50,0,4,0,36,234
2024-05-26 15:49:50,0,15,7,49,234
2024-05-26 15:49:50,0,30,22,67,234
2024-05-26 15:49:50,0,33,27,72,234
2024-05-26 15:49:50,0,26,23,67,234
2024-05-26 15:49:50,0,19,16,61,234
2024-05-26 15:49:50,0,12,7,54,234
2024-05-26 15:49:50,0,0,0,36,234
2024-05-26 15:49:50,0,0,0,17,235
2024-05-26 15:49:50,0,0,0,6,234
2024-05-26 15:49:50,0,0,0,14,234
2024-05-26 15:49:50,0,0,0,34,235
2024-05-26 15:49:50,0,0,0,48,235
2024-05-26 15:49:50,0,0,0,48,234
2024-05-26 15:49:50,0,0,0,42,235
2024-05-26 15:49:50,0,0,0,37,235
2024-05-26 15:49:51,0,0,0,39,235
2024-05-26 15:49:51,0,0,0,44,234
2024-05-26 15:49:51,0,0,0,48,235
2024-05-26 15:49:51,0,0,0,50,235
2024-05-26 15:49:51,0,0,0,49,234
2024-05-26 15:49:51,0,0,0,46,235
2024-05-26 15:49:51,0,0,0,49,234
2024-05-26 15:49:51,0,0,0,51,234
2024-05-26 15:49:51,0,0,0,45,234
2024-05-26 15:49:51,0,0,0,44,234
2024-05-26 15:49:51,0,0,0,49,233
2024-05-26 15:49:51,0,0,0,55,234
2024-05-26 15:49:51,0,0,0,56,235
2024-05-26 15:49:51,0,0,0,52,234
2024-05-26 15:49:51,0,0,0,50,235
2024-05-26 15:49:51,0,0,0,51,234
2024-05-26 15:49:51,0,0,0,51,234
2024-05-26 15:49:51,0,0,0,51,234
2024-05-26 15:49:51,0,0,0,50,235
2024-05-26 15:49:51,0,0,0,48,234
2024-05-26 15:49:51,0,0,0,52,235
2024-05-26 15:49:51,0,0,0,60,234
2024-05-26 15:49:51,0,0,0,64,235
2024-05-26 15:49:51,0,0,0,63,234
2024-05-26 15:49:51,0,0,0,60,234
2024-05-26 15:49:51,0,0,2,60,234
2024-05-26 15:49:51,0,0,2,62,234
2024-05-26 15:49:51,0,0,2,62,234
2024-05-26 15:49:51,0,0,4,62,234
2024-05-26 15:49:51,0,0,4,61,234
2024-05-26 15:49:51,0,0,4,63,235
2024-05-26 15:49:51,0,0,1,61,235
2024-05-26 15:49:51,0,0,0,58,234
2024-05-26 15:49:51,0,2,5,62,234
2024-05-26 15:49:51,0,7,5,62,234
2024-05-26 15:49:51,67,235,5,62,234
2024-05-26 15:49:51,0,9,11,68,234
2024-05-26 15:49:51,0,11,12,69,235
2024-05-26 15:49:51,0,8,12,69,235
2024-05-26 15:49:51,66,234,12,69,235
2024-05-26 15:49:51,0,4,4,61,234
2024-05-26 15:49:51,0,3,2,59,234
2024-05-26 15:49:51,0,2,0,58,234
2024-05-26 15:49:51,0,9,8,65,235
2024-05-26 15:49:51,14,12,11,67,234
2024-05-26 15:49:51,54,11,9,66,234
2024-05-26 15:49:51,78,8,4,60,235
2024-05-26 15:49:51,97,7,4,58,234
2024-05-26 15:49:51,114,7,4,58,234
2024-05-26 15:49:51,6,59,235,58,234
2024-05-26 15:49:51,133,18,235,58,234
2024-05-26 15:49:51,66,235,235,58,234
2024-05-26 15:49:51,145,18,11,68,234
2024-05-26 15:49:51,151,18,11,68,234
2024-05-26 15:49:51,7,61,234,68,234
2024-05-26 15:49:51,162,8,6,60,235
2024-05-26 15:49:51,176,8,6,60,235
2024-05-26 15:49:51,176,8,6,60,235
2024-05-26 15:49:51,63,234,6,60,235
2024-05-26 15:49:51,189,13,15,67,235
2024-05-26 15:49:51,198,12,14,64,235
2024-05-26 15:49:51,200,3,5,52,234
2024-05-26 15:49:51,205,0,2,46,234
2024-05-26 15:49:51,211,0,0,45,234
2024-05-26 15:49:51,221,0,0,47,234
2024-05-26 15:49:51,228,0,0,45,234
2024-05-26 15:49:51,235,0,0,44,235
2024-05-26 15:49:51,235,0,0,44,234
2024-05-26 15:49:51,235,0,0,45,234
2024-05-26 15:49:51,236,3,2,46,235
2024-05-26 15:49:51,235,5,5,48,234
2024-05-26 15:49:51,235,7,6,48,234
2024-05-26 15:49:51,235,7,6,48,234
2024-05-26 15:49:51,8,50,234,48,234
2024-05-26 15:49:51,235,50,234,48,234
2024-05-26 15:49:51,51,234,234,48,234
2024-05-26 15:49:51,236,18,16,58,234
2024-05-26 15:49:51,235,23,20,62,234
2024-05-26 15:49:51,235,22,18,59,234
2024-05-26 15:49:51,235,22,18,58,235
2024-05-26 15:49:51,235,25,21,59,235
2024-05-26 15:49:51,235,27,24,62,234
2024-05-26 15:49:51,235,27,24,61,235
2024-05-26 15:49:51,235,24,21,58,234
2024-05-26 15:49:51,234,24,19,56,234
2024-05-26 15:49:51,235,25,20,57,234
2024-05-26 15:49:51,235,27,24,60,235
2024-05-26 15:49:51,235,31,30,64,234
2024-05-26 15:49:51,235,32,31,64,235
2024-05-26 15:49:51,235,34,31,65,234
2024-05-26 15:49:51,235,37,32,67,234
2024-05-26 15:49:51,235,38,36,70,235
2024-05-26 15:49:51,235,38,40,71,235
2024-05-26 15:49:51,235,35,39,66,234
2024-05-26 15:49:51,235,31,34,61,235
2024-05-26 15:49:51,235,34,35,65,234
2024-05-26 15:49:51,235,39,40,73,235
2024-05-26 15:49:51,235,43,44,76,234
2024-05-26 15:49:51,235,47,47,77,234
2024-05-26 15:49:51,235,46,47,75,235
2024-05-26 15:49:51,236,47,49,77,234
2024-05-26 15:49:51,235,50,52,81,235
2024-05-26 15:49:51,235,50,52,84,234
2024-05-26 15:49:51,236,49,49,82,234
2024-05-26 15:49:51,235,49,48,79,234
2024-05-26 15:49:51,235,51,51,81,234
2024-05-26 15:49:51,235,52,49,80,234
2024-05-26 15:49:51,235,54,53,81,234
2024-05-26 15:49:51,235,58,56,85,234
2024-05-26 15:49:51,235,61,60,90,235
2024-05-26 15:49:51,235,65,66,93,235
2024-05-26 15:49:51,235,66,67,92,234
2024-05-26 15:49:51,235,61,62,85,234
2024-05-26 15:49:51,235,53,54,76,234
2024-05-26 15:49:51,235,55,56,78,235
2024-05-26 15:49:51,235,67,68,90,235
2024-05-26 15:49:51,235,71,74,95,234
2024-05-26 15:49:51,235,69,73,91,234
2024-05-26 15:49:51,235,62,68,82,234
2024-05-26 15:49:51,235,57,65,79,235
2024-05-26 15:49:51,236,63,72,87,235
2024-05-26 15:49:51,235,73,81,96,235
2024-05-26 15:49:51,236,74,83,97,235
2024-05-26 15:49:51,235,70,77,92,235
2024-05-26 15:49:51,236,69,76,90,234
2024-05-26 15:49:51,235,74,83,94,234
2024-05-26 15:49:51,235,73,82,91,235
2024-05-26 15:49:51,235,71,78,87,234
2024-05-26 15:49:51,235,70,77,85,234
2024-05-26 15:49:51,235,70,77,82,234
2024-05-26 15:49:51,235,77,81,88,234
2024-05-26 15:49:51,236,83,88,95,234
2024-05-26 15:49:51,235,86,88,96,234
2024-05-26 15:49:51,235,87,88,95,234
2024-05-26 15:49:51,235,92,92,100,235
2024-05-26 15:49:51,235,98,99,105,234
2024-05-26 15:49:51,235,104,106,111,235
2024-05-26 15:49:51,235,110,111,117,234
2024-05-26 15:49:51,235,119,119,126,235
2024-05-26 15:49:51,235,127,128,134,234
2024-05-26 15:49:51,235,135,135,142,235
2024-05-26 15:49:51,235,131,128,136,235
2024-05-26 15:49:51,235,115,109,116,234
2024-05-26 15:49:51,235,96,92,95,235
2024-05-26 15:49:51,235,83,82,82,235
2024-05-26 15:49:51,235,85,83,84,235
2024-05-26 15:49:51,235,96,92,96,234
2024-05-26 15:49:51,236,103,102,106,234
2024-05-26 15:49:51,235,100,101,103,234
2024-05-26 15:49:51,235,101,101,100,234
2024-05-26 15:49:51,235,106,103,105,234
2024-05-26 15:49:51,235,110,106,108,235
2024-05-26 15:49:51,236,109,107,107,234
2024-05-26 15:49:51,235,110,112,108,234
2024-05-26 15:49:51,235,113,116,110,234
2024-05-26 15:49:51,235,113,115,109,234
2024-05-26 15:49:51,235,114,113,107,235
2024-05-26 15:49:51,235,114,111,105,235
2024-05-26 15:49:51,235,114,112,105,235
2024-05-26 15:49:51,235,114,112,104,235
2024-05-26 15:49:51,235,119,118,110,235
2024-05-26 15:49:51,235,124,123,115,234
2024-05-26 15:49:51,235,127,125,117,234
2024-05-26 15:49:51,235,127,123,116,234
2024-05-26 15:49:51,235,128,124,117,235
2024-05-26 15:49:51,235,130,126,118,234
2024-05-26 15:49:51,235,130,126,118,235
2024-05-26 15:49:51,235,132,127,120,234
2024-05-26 15:49:51,235,132,128,119,235
2024-05-26 15:49:51,235,129,127,115,235
2024-05-26 15:49:51,235,128,124,112,234
2024-05-26 15:49:51,235,131,127,114,234
2024-05-26 15:49:51,235,139,132,120,234
2024-05-26 15:49:51,235,139,131,121,234
2024-05-26 15:49:51,235,137,134,119,234
2024-05-26 15:49:51,235,139,140,121,235
2024-05-26 15:49:51,235,143,146,126,234
2024-05-26 15:49:51,235,139,142,123,235
2024-05-26 15:49:51,235,137,138,120,234
2024-05-26 15:49:51,235,137,137,119,235
2024-05-26 15:49:51,235,142,141,123,234
2024-05-26 15:49:51,235,143,143,126,234
2024-05-26 15:49:51,236,142,143,127,234
2024-05-26 15:49:51,235,145,145,130,235
2024-05-26 15:49:51,235,145,145,131,235
2024-05-26 15:49:51,235,147,146,133,235
2024-05-26 15:49:51,235,150,149,136,235
2024-05-26 15:49:51,235,149,146,133,235
2024-05-26 15:49:51,235,143,141,124,234
2024-05-26 15:49:51,235,145,144,126,234
2024-05-26 15:49:51,235,155,156,138,234
2024-05-26 15:49:51,235,162,163,145,235
2024-05-26 15:49:51,235,161,159,142,234
2024-05-26 15:49:51,235,154,150,134,234
2024-05-26 15:49:51,235,143,140,123,234
2024-05-26 15:49:51,235,142,138,122,234
2024-05-26 15:49:51,235,145,141,126,234
2024-05-26 15:49:51,235,147,142,128,235
2024-05-26 15:49:51,235,143,136,124,235
2024-05-26 15:49:51,235,137,132,118,234
2024-05-26 15:49:51,235,136,137,119,234
2024-05-26 15:49:51,235,140,142,123,234
2024-05-26 15:49:51,235,144,145,128,235
2024-05-26 15:49:51,235,148,146,130,235
2024-05-26 15:49:51,235,153,149,131,234
2024-05-26 15:49:51,235,150,149,129,234
2024-05-26 15:49:51,235,144,145,123,234
2024-05-26 15:49:51,235,139,140,118,234
2024-05-26 15:49:51,235,140,141,118,235
2024-05-26 15:49:51,235,143,143,120,234
2024-05-26 15:49:51,235,146,145,122,234
2024-05-26 15:49:51,235,149,148,127,235
2024-05-26 15:49:51,235,151,149,128,235
2024-05-26 15:49:51,235,150,147,126,234
2024-05-26 15:49:51,236,147,143,123,234
2024-05-26 15:49:51,235,147,143,122,234
2024-05-26 15:49:51,235,148,143,122,235
2024-05-26 15:49:51,235,148,143,122,235
2024-05-26 15:49:51,235,148,141,121,235
2024-05-26 15:49:51,235,151,144,123,234
2024-05-26 15:49:51,235,155,149,128,232
2024-05-26 15:49:51,236,156,150,128,234
2024-05-26 15:49:51,235,153,146,123,234
2024-05-26 15:49:51,235,149,142,117,235
2024-05-26 15:49:51,235,150,144,119,234
2024-05-26 15:49:51,235,157,150,125,234
2024-05-26 15:49:51,235,161,154,129,235
2024-05-26 15:49:51,235,164,156,131,234
2024-05-26 15:49:51,235,157,149,124,234
2024-05-26 15:49:51,236,149,140,113,234
2024-05-26 15:49:51,235,153,143,117,235
2024-05-26 15:49:51,235,156,146,121,234
2024-05-26 15:49:51,236,152,145,118,234
2024-05-26 15:49:51,235,152,143,118,234
2024-05-26 15:49:51,235,157,146,122,234
2024-05-26 15:49:51,235,157,150,125,235
2024-05-26 15:49:51,235,156,152,126,234
2024-05-26 15:49:51,235,152,147,122,234
2024-05-26 15:49:51,235,148,140,116,234
2024-05-26 15:49:51,235,153,145,122,234
2024-05-26 15:49:51,233,155,147,124,235
2024-05-26 15:49:51,235,152,148,124,234
2024-05-26 15:49:51,235,155,151,127,234
2024-05-26 15:49:51,235,158,153,129,235
2024-05-26 15:49:51,235,155,148,124,235
2024-05-26 15:49:51,235,157,148,124,234
2024-05-26 15:49:51,235,161,153,128,234
2024-05-26 15:49:51,235,162,155,128,235
2024-05-26 15:49:51,236,160,152,125,234
2024-05-26 15:49:51,235,157,150,121,234
2024-05-26 15:49:51,235,161,155,125,234
2024-05-26 15:49:51,235,166,159,130,234
2024-05-26 15:49:51,236,167,160,132,235
2024-05-26 15:49:51,236,165,158,128,234
2024-05-26 15:49:51,235,162,158,127,235
2024-05-26 15:49:51,235,164,161,130,234
2024-05-26 15:49:51,235,165,161,131,235
2024-05-26 15:49:51,236,161,156,127,234
2024-05-26 15:49:51,235,156,148,120,234
2024-05-26 15:49:51,235,160,151,125,234
2024-05-26 15:49:52,236,166,157,132,234
2024-05-26 15:49:52,235,171,163,138,234
2024-05-26 15:49:52,235,166,160,132,234
2024-05-26 15:49:52,235,159,152,123,234
2024-05-26 15:49:52,236,156,150,121,235
2024-05-26 15:49:52,235,157,151,122,234
2024-05-26 15:49:52,235,160,152,126,234
2024-05-26 15:49:52,236,158,150,123,234
2024-05-26 15:49:52,235,158,151,124,234
2024-05-26 15:49:52,235,160,152,125,234
2024-05-26 15:49:52,235,163,155,129,234
2024-05-26 15:49:52,235,167,159,133,235
2024-05-26 15:49:52,236,165,158,132,234
2024-05-26 15:49:52,235,163,156,131,234
2024-05-26 15:49:52,235,164,157,131,234
2024-05-26 15:49:52,235,167,160,135,235
2024-05-26 15:49:52,236,174,166,141,234
2024-05-26 15:49:52,235,177,169,145,234
2024-05-26 15:49:52,235,177,169,144,234
2024-05-26 15:49:52,235,178,171,145,234
2024-05-26 15:49:52,235,181,173,150,234
2024-05-26 15:49:52,236,197,190,166,235
2024-05-26 15:49:52,235,204,198,175,234
2024-05-26 15:49:52,235,203,198,175,234
2024-05-26 15:49:52,235,201,194,172,234
2024-05-26 15:49:52,235,194,186,164,234
2024-05-26 15:49:52,235,173,163,141,234
2024-05-26 15:49:52,235,154,141,117,234
2024-05-26 15:49:52,235,145,133,110,235
2024-05-26 15:49:52,234,151,144,121,234
2024-05-26 15:49:52,235,163,157,134,234
2024-05-26 15:49:52,235,170,165,141,234
2024-05-26 15:49:52,235,171,162,138,234
2024-05-26 15:49:52,235,169,161,135,234
2024-05-26 15:49:52,235,170,163,137,235
2024-05-26 15:49:52,235,169,163,136,234
2024-05-26 15:49:52,235,169,163,138,235
2024-05-26 15:49:52,235,164,158,135,235
2024-05-26 15:49:52,235,160,152,131,235
2024-05-26 15:49:52,235,167,157,136,234
2024-05-26 15:49:52,235,174,166,143,234
2024-05-26 15:49:52,236,177,172,148,234
2024-05-26 15:49:52,236,175,170,144,235
2024-05-26 15:49:52,235,171,165,139,234
2024-05-26 15:49:52,235,170,163,137,235
2024-05-26 15:49:52,236,170,164,138,234
2024-05-26 15:49:52,235,172,165,139,234
2024-05-26 15:49:52,235,171,165,139,234
2024-05-26 15:49:52,235,170,164,138,234
2024-05-26 15:49:52,235,171,165,142,233
2024-05-26 15:49:52,235,174,168,146,234
2024-05-26 15:49:52,234,176,169,148,234
2024-05-26 15:49:52,233,180,171,150,235
2024-05-26 15:49:52,228,176,168,146,234
2024-05-26 15:49:52,223,173,165,141,234
2024-05-26 15:49:52,221,172,163,140,235
2024-05-26 15:49:52,221,175,166,143,234
2024-05-26 15:49:52,220,176,169,144,234
2024-05-26 15:49:52,216,176,167,143,234
2024-05-26 15:49:52,211,174,163,141,234
2024-05-26 15:49:52,214,179,170,147,235
2024-05-26 15:49:52,219,184,177,156,235
2024-05-26 15:49:52,216,183,175,155,235
2024-05-26 15:49:52,212,181,173,152,234
2024-05-26 15:49:52,211,183,173,152,235
2024-05-26 15:49:52,211,186,175,154,234
2024-05-26 15:49:52,210,186,174,153,234
2024-05-26 15:49:52,208,186,170,152,234
2024-05-26 15:49:52,207,184,170,150,234
2024-05-26 15:49:52,210,186,176,152,234
2024-05-26 15:49:52,212,188,179,155,234
2024-05-26 15:49:52,212,188,179,155,234
2024-05-26 15:49:52,207,184,174,149,234
2024-05-26 15:49:52,200,178,165,142,234
2024-05-26 15:49:52,193,170,158,138,235
2024-05-26 15:49:52,194,172,162,142,235
2024-05-26 15:49:52,194,173,163,145,234
2024-05-26 15:49:52,191,169,160,142,234
2024-05-26 15:49:52,190,170,161,142,234
2024-05-26 15:49:52,192,173,166,145,234
2024-05-26 15:49:52,195,177,170,150,234
2024-05-26 15:49:52,193,178,170,150,234
2024-05-26 15:49:52,186,172,164,143,234
2024-05-26 15:49:52,181,167,159,137,234
2024-05-26 15:49:52,176,163,154,132,234
2024-05-26 15:49:52,175,163,156,132,233
2024-05-26 15:49:52,178,169,162,139,235
2024-05-26 15:49:52,179,171,166,142,234
2024-05-26 15:49:52,179,172,166,144,235
2024-05-26 15:49:52,176,170,162,141,234
2024-05-26 15:49:52,170,165,158,136,234
2024-05-26 15:49:52,168,163,157,135,234
2024-05-26 15:49:52,165,161,155,132,234
2024-05-26 15:49:52,160,156,150,128,234
2024-05-26 15:49:52,158,156,149,129,234
2024-05-26 15:49:52,158,158,154,132,235
2024-05-26 15:49:52,156,158,153,131,235
2024-05-26 15:49:52,154,156,152,130,234
2024-05-26 15:49:52,153,156,151,130,235
2024-05-26 15:49:52,156,161,154,133,234
2024-05-26 15:49:52,161,168,161,139,234
2024-05-26 15:49:52,159,167,163,139,235
2024-05-26 15:49:52,154,163,158,133,234
2024-05-26 15:49:52,147,157,152,128,234
2024-05-26 15:49:52,148,156,153,130,235
2024-05-26 15:49:52,153,163,161,140,235
2024-05-26 15:49:52,154,164,163,141,235
2024-05-26 15:49:52,151,162,160,140,234
2024-05-26 15:49:52,151,161,159,139,234
2024-05-26 15:49:52,152,163,158,142,234
2024-05-26 15:49:52,156,168,160,146,235
2024-05-26 15:49:52,156,168,160,146,234
2024-05-26 15:49:52,147,157,152,134,235
2024-05-26 15:49:52,141,150,147,125,235
2024-05-26 15:49:52,136,146,143,120,234
2024-05-26 15:49:52,138,149,148,125,235
2024-05-26 15:49:52,144,156,155,133,234
2024-05-26 15:49:52,148,162,160,138,234
2024-05-26 15:49:52,147,162,158,136,235
2024-05-26 15:49:52,143,158,153,131,234
2024-05-26 15:49:52,143,159,154,132,234
2024-05-26 15:49:52,147,163,159,136,235
2024-05-26 15:49:52,145,162,158,135,235
2024-05-26 15:49:52,139,157,151,128,235
2024-05-26 15:49:52,136,154,148,126,234
2024-05-26 15:49:52,140,160,153,132,234
2024-05-26 15:49:52,144,166,158,138,234
2024-05-26 15:49:52,143,165,156,136,234
2024-05-26 15:49:52,139,160,154,131,235
2024-05-26 15:49:52,137,160,152,131,234
2024-05-26 15:49:52,142,165,157,136,234
2024-05-26 15:49:52,142,167,159,139,234
2024-05-26 15:49:52,136,162,153,132,234
2024-05-26 15:49:52,134,159,151,128,235
2024-05-26 15:49:52,135,161,154,130,234
2024-05-26 15:49:52,137,163,157,131,235
2024-05-26 15:49:52,141,166,160,134,235
2024-05-26 15:49:52,143,167,160,134,235
2024-05-26 15:49:52,143,165,158,133,235
2024-05-26 15:49:52,144,164,155,130,234
2024-05-26 15:49:52,148,166,157,132,234
2024-05-26 15:49:52,155,171,161,137,234
2024-05-26 15:49:52,156,171,161,137,234
2024-05-26 15:49:52,154,169,158,134,234
2024-05-26 15:49:52,153,168,156,132,235
2024-05-26 15:49:52,149,164,152,128,235
2024-05-26 15:49:52,148,163,152,128,234
2024-05-26 15:49:52,147,162,154,128,234
2024-05-26 15:49:52,147,162,156,128,235
2024-05-26 15:49:52,147,165,158,130,234
2024-05-26 15:49:52,148,169,160,134,234
2024-05-26 15:49:52,143,166,156,130,234
2024-05-26 15:49:52,131,153,145,117,234
2024-05-26 15:49:52,129,150,141,115,234
2024-05-26 15:49:52,136,158,148,123,235
2024-05-26 15:49:52,145,167,158,134,235
2024-05-26 15:49:52,152,174,164,142,234
2024-05-26 15:49:52,150,171,162,139,235
2024-05-26 15:49:52,144,166,155,132,234
2024-05-26 15:49:52,138,158,149,125,235
2024-05-26 15:49:52,137,158,148,125,234
2024-05-26 15:49:52,139,161,152,131,235
2024-05-26 15:49:52,144,167,157,138,235
2024-05-26 15:49:52,148,173,162,144,235
2024-05-26 15:49:52,155,182,171,153,234
2024-05-26 15:49:52,162,190,180,162,234
2024-05-26 15:49:52,166,194,183,164,234
2024-05-26 15:49:52,149,178,165,144,234
2024-05-26 15:49:52,132,163,145,126,234
2024-05-26 15:49:52,118,147,133,112,234
2024-05-26 15:49:52,113,140,131,109,234
2024-05-26 15:49:52,117,143,136,113,234
2024-05-26 15:49:52,121,148,141,119,234
2024-05-26 15:49:52,128,157,150,127,234
2024-05-26 15:49:52,131,163,154,132,235
2024-05-26 15:49:52,128,160,150,129,234
2024-05-26 15:49:52,117,149,139,117,234
2024-05-26 15:49:52,116,149,141,118,234
2024-05-26 15:49:52,118,150,146,122,234
2024-05-26 15:49:52,116,149,146,123,234
2024-05-26 15:49:52,114,148,144,121,234
2024-05-26 15:49:52,113,147,144,121,235
2024-05-26 15:49:52,114,149,146,123,235
2024-05-26 15:49:52,113,150,147,123,234
2024-05-26 15:49:52,112,149,146,124,235
2024-05-26 15:49:52,112,149,145,124,234
2024-05-26 15:49:52,110,146,144,120,234
2024-05-26 15:49:52,113,150,148,124,234
2024-05-26 15:49:52,120,157,156,132,235
2024-05-26 15:49:52,122,159,157,134,235
2024-05-26 15:49:52,119,157,154,129,235
2024-05-26 15:49:52,111,149,146,120,235
2024-05-26 15:49:52,106,145,142,116,234
2024-05-26 15:49:52,110,149,147,120,234
2024-05-26 15:49:52,117,159,155,130,234
2024-05-26 15:49:52,117,160,155,131,234
2024-05-26 15:49:52,110,154,146,123,234
2024-05-26 15:49:52,107,152,146,122,234
2024-05-26 15:49:52,112,158,153,129,234
2024-05-26 15:49:52,116,162,159,135,235
2024-05-26 15:49:52,114,161,157,132,234
2024-05-26 15:49:52,109,156,152,126,234
2024-05-26 15:49:52,109,155,151,126,234
2024-05-26 15:49:52,110,157,153,128,235
2024-05-26 15:49:52,112,159,155,130,235
2024-05-26 15:49:52,112,160,155,130,235
2024-05-26 15:49:52,112,158,153,127,235
2024-05-26 15:49:52,115,161,155,130,234
2024-05-26 15:49:52,117,163,157,132,232
2024-05-26 15:49:52,115,161,152,129,234
2024-05-26 15:49:52,111,155,146,121,234
2024-05-26 15:49:52,109,152,146,118,234
2024-05-26 15:49:52,108,149,147,117,235
2024-05-26 15:49:52,116,157,155,124,235
2024-05-26 15:49:52,123,164,162,132,234
2024-05-26 15:49:52,122,163,162,132,235
2024-05-26 15:49:52,121,163,160,130,234
2024-05-26 15:49:52,120,162,158,128,234
2024-05-26 15:49:52,119,161,158,127,235
2024-05-26 15:49:52,121,162,158,128,234
2024-05-26 15:49:52,117,161,151,124,234
2024-05-26 15:49:52,111,153,146,118,234
2024-05-26 15:49:52,106,145,145,111,234
2024-05-26 15:49:52,102,142,142,108,235
2024-05-26 15:49:52,101,143,141,108,234
2024-05-26 15:49:52,102,143,142,110,234
2024-05-26 15:49:52,100,141,139,107,234
2024-05-26 15:49:52,99,140,138,107,234
2024-05-26 15:49:52,101,143,139,110,234
2024-05-26 15:49:52,103,144,142,112,234
2024-05-26 15:49:52,103,144,143,112,234
2024-05-26 15:49:52,102,143,142,109,235
2024-05-26 15:49:52,100,141,140,107,234
2024-05-26 15:49:52,100,142,140,107,234
2024-05-26 15:49:52,97,139,136,104,235
2024-05-26 15:49:52,93,135,132,100,234
2024-05-26 15:49:52,92,134,131,99,234
2024-05-26 15:49:52,96,138,137,104,234
2024-05-26 15:49:52,101,143,143,110,234
2024-05-26 15:49:52,103,144,144,112,234
2024-05-26 15:49:52,100,144,142,110,234
2024-05-26 15:49:52,93,138,135,103,234
2024-05-26 15:49:52,88,135,130,98,234
2024-05-26 15:49:52,90,137,132,101,234
2024-05-26 15:49:52,95,142,137,106,234
2024-05-26 15:49:52,99,146,140,110,235
2024-05-26 15:49:52,98,145,137,107,234
2024-05-26 15:49:52,93,140,132,99,234
2024-05-26 15:49:52,91,139,131,98,234
2024-05-26 15:49:52,96,144,140,105,234
2024-05-26 15:49:53,98,147,144,108,234
2024-05-26 15:49:53,90,137,139,98,234
2024-05-26 15:49:53,86,132,135,93,234
2024-05-26 15:49:53,90,135,137,96,234
2024-05-26 15:49:53,96,142,142,103,235
2024-05-26 15:49:53,99,145,144,106,234
2024-05-26 15:49:53,95,141,139,101,234
2024-05-26 15:49:53,87,133,131,93,234
2024-05-26 15:49:53,83,129,125,89,234
2024-05-26 15:49:53,84,130,126,92,235
2024-05-26 15:49:53,88,132,130,97,234
2024-05-26 15:49:53,92,138,134,101,235
2024-05-26 15:49:53,98,143,139,107,234
2024-05-26 15:49:53,102,146,141,110,234
2024-05-26 15:49:53,101,146,140,110,235
2024-05-26 15:49:53,99,145,137,109,234
2024-05-26 15:49:53,97,142,135,106,234
2024-05-26 15:49:53,95,138,133,103,234
2024-05-26 15:49:53,95,137,133,102,234
2024-05-26 15:49:53,101,142,139,110,235
2024-05-26 15:49:53,99,140,137,109,234
2024-05-26 15:49:53,95,136,132,104,234
2024-05-26 15:49:53,94,134,130,101,234
2024-05-26 15:49:53,96,137,133,102,234
2024-05-26 15:49:53,96,137,133,101,234
2024-05-26 15:49:53,91,129,128,96,234
2024-05-26 15:49:53,88,125,124,92,234
2024-05-26 15:49:53,91,126,125,94,235
2024-05-26 15:49:53,98,134,132,102,235
2024-05-26 15:49:53,103,139,137,109,235
2024-05-26 15:49:53,108,143,143,112,234
2024-05-26 15:49:53,106,139,140,110,234
2024-05-26 15:49:53,103,135,136,105,234
2024-05-26 15:49:53,103,134,135,105,234
2024-05-26 15:49:53,104,134,135,106,235
2024-05-26 15:49:53,104,135,137,108,234
2024-05-26 15:49:53,102,131,133,105,234
2024-05-26 15:49:53,99,129,131,103,234
2024-05-26 15:49:53,101,131,133,105,234
2024-05-26 15:49:53,100,130,132,106,234
2024-05-26 15:49:53,96,125,129,103,234
2024-05-26 15:49:53,93,122,127,100,234
2024-05-26 15:49:53,92,122,127,99,234
2024-05-26 15:49:53,96,126,133,104,234
2024-05-26 15:49:53,100,130,137,107,234
2024-05-26 15:49:53,98,128,133,104,234
2024-05-26 15:49:53,94,124,129,100,234
2024-05-26 15:49:53,94,125,130,100,234
2024-05-26 15:49:53,100,129,136,106,234
2024-05-26 15:49:53,102,129,137,108,234
2024-05-26 15:49:53,101,129,135,106,235
2024-05-26 15:49:53,96,123,127,97,235
2024-05-26 15:49:53,95,121,127,95,234
2024-05-26 15:49:53,102,127,135,103,235
2024-05-26 15:49:53,113,140,147,115,234
2024-05-26 15:49:53,122,147,156,123,234
2024-05-26 15:49:53,126,149,157,125,234
2024-05-26 15:49:53,127,150,157,124,234
2024-05-26 15:49:53,132,156,161,129,234
2024-05-26 15:49:53,136,161,165,134,235
2024-05-26 15:49:53,134,158,164,132,234
2024-05-26 15:49:53,110,132,137,105,234
2024-05-26 15:49:53,91,114,116,84,234
2024-05-26 15:49:53,84,109,111,80,235
2024-05-26 15:49:53,89,115,117,89,234
2024-05-26 15:49:53,96,121,128,99,234
2024-05-26 15:49:53,94,118,127,96,235
2024-05-26 15:49:53,93,116,125,93,234
2024-05-26 15:49:53,100,125,134,101,234
2024-05-26 15:49:53,106,130,140,109,235
2024-05-26 15:49:53,105,128,139,107,234
2024-05-26 15:49:53,100,123,132,100,234
2024-05-26 15:49:53,99,124,132,101,235
2024-05-26 15:49:53,102,128,136,106,234
2024-05-26 15:49:53,105,131,138,110,234
2024-05-26 15:49:53,104,129,135,107,234
2024-05-26 15:49:53,99,125,130,101,234
2024-05-26 15:49:53,98,124,128,100,235
2024-05-26 15:49:53,101,127,131,103,234
2024-05-26 15:49:53,105,131,135,111,234
2024-05-26 15:49:53,110,135,139,116,234
2024-05-26 15:49:53,109,132,138,114,235
2024-05-26 15:49:53,107,126,133,108,234
2024-05-26 15:49:53,104,123,129,106,235
2024-05-26 15:49:53,104,124,129,107,234
2024-05-26 15:49:53,105,125,131,108,234
2024-05-26 15:49:53,106,126,131,109,235
2024-05-26 15:49:53,107,128,132,111,234
2024-05-26 15:49:53,110,131,137,114,234
2024-05-26 15:49:53,114,133,141,116,235
2024-05-26 15:49:53,116,135,144,118,235
2024-05-26 15:49:53,113,131,140,115,234
2024-05-26 15:49:53,109,127,134,110,234
2024-05-26 15:49:53,105,123,130,106,235
2024-05-26 15:49:53,105,123,129,106,235
2024-05-26 15:49:53,112,129,135,113,234
2024-05-26 15:49:53,117,133,141,119,234
2024-05-26 15:49:53,117,134,140,121,234
2024-05-26 15:49:53,120,136,141,124,234
2024-05-26 15:49:53,121,137,142,126,234
2024-05-26 15:49:53,122,138,142,126,235
2024-05-26 15:49:53,119,133,138,121,234
2024-05-26 15:49:53,115,129,134,116,234
2024-05-26 15:49:53,117,132,137,118,234
2024-05-26 15:49:53,121,136,139,123,234
2024-05-26 15:49:53,121,136,140,124,234
2024-05-26 15:49:53,118,133,137,120,234
2024-05-26 15:49:53,117,132,134,119,235
2024-05-26 15:49:53,120,135,138,123,234
2024-05-26 15:49:53,123,136,143,126,234
2024-05-26 15:49:53,124,136,146,128,235
2024-05-26 15:49:53,120,131,140,123,234
2024-05-26 15:49:53,113,125,132,116,234
2024-05-26 15:49:53,111,125,130,114,234
2024-05-26 15:49:53,114,127,133,118,235
2024-05-26 15:49:53,116,128,135,121,234
2024-05-26 15:49:53,117,128,135,121,235
2024-05-26 15:49:53,114,124,131,117,234
2024-05-26 15:49:53,112,123,131,116,234
2024-05-26 15:49:53,113,123,131,117,234
2024-05-26 15:49:53,111,121,128,115,234
2024-05-26 15:49:53,103,115,122,107,235
2024-05-26 15:49:53,99,112,119,102,234
2024-05-26 15:49:53,100,115,121,104,234
2024-05-26 15:49:53,105,120,126,110,235
2024-05-26 15:49:53,105,120,126,110,234
2024-05-26 15:49:53,101,115,121,105,235
2024-05-26 15:49:53,101,114,121,104,235
2024-05-26 15:49:53,106,117,125,106,235
2024-05-26 15:49:53,112,122,130,110,235
2024-05-26 15:49:53,116,124,131,112,234
2024-05-26 15:49:53,115,122,129,111,235
2024-05-26 15:49:53,111,116,126,106,234
2024-05-26 15:49:53,109,112,123,102,234
2024-05-26 15:49:53,110,114,122,104,234
2024-05-26 15:49:53,113,117,125,109,234
2024-05-26 15:49:53,112,116,126,108,234
2024-05-26 15:49:53,110,113,126,105,234
2024-05-26 15:49:53,113,118,128,108,234
2024-05-26 15:49:53,117,123,131,111,235
2024-05-26 15:49:53,116,122,130,109,234
2024-05-26 15:49:53,113,120,126,106,234
2024-05-26 15:49:53,111,118,125,105,234
2024-05-26 15:49:53,110,118,124,105,234
2024-05-26 15:49:53,112,119,126,107,235
2024-05-26 15:49:53,111,118,126,107,234
2024-05-26 15:49:53,109,116,123,105,234
2024-05-26 15:49:53,117,124,130,113,234
2024-05-26 15:49:53,127,132,138,123,235
2024-05-26 15:49:53,130,134,140,126,234
2024-05-26 15:49:53,131,135,140,127,234
2024-05-26 15:49:53,128,131,135,123,235
2024-05-26 15:49:53,120,122,125,113,234
2024-05-26 15:49:53,115,119,120,108,234
2024-05-26 15:49:53,116,120,121,107,234
2024-05-26 15:49:53,116,120,121,110,234
2024-05-26 15:49:53,115,117,122,108,234
2024-05-26 15:49:53,113,115,122,106,234
2024-05-26 15:49:53,116,119,127,110,234
2024-05-26 15:49:53,121,126,132,116,235
2024-05-26 15:49:53,123,129,135,120,235
2024-05-26 15:49:53,119,125,130,115,234
2024-05-26 15:49:53,116,122,127,113,235
2024-05-26 15:49:53,120,125,131,117,234
2024-05-26 15:49:53,126,130,137,123,234
2024-05-26 15:49:53,125,127,137,120,234
2024-05-26 15:49:53,123,124,134,116,234
2024-05-26 15:49:53,124,124,135,116,234
2024-05-26 15:49:53,125,124,137,117,234
2024-05-26 15:49:53,126,125,137,118,234
2024-05-26 15:49:53,122,121,132,115,235
2024-05-26 15:49:53,119,119,128,112,234
2024-05-26 15:49:53,121,121,131,114,234
2024-05-26 15:49:53,124,124,136,118,234
2024-05-26 15:49:53,127,127,138,121,235
2024-05-26 15:49:53,129,129,140,122,234
2024-05-26 15:49:53,124,124,134,115,234
2024-05-26 15:49:53,118,117,127,109,234
2024-05-26 15:49:53,115,114,124,107,235
2024-05-26 15:49:53,114,114,124,108,234
2024-05-26 15:49:53,118,118,129,113,234
2024-05-26 15:49:53,124,124,135,120,235
2024-05-26 15:49:53,125,126,135,123,234
2024-05-26 15:49:53,123,125,132,121,235
2024-05-26 15:49:53,121,123,129,118,235
2024-05-26 15:49:53,120,121,129,118,234
2024-05-26 15:49:53,117,118,126,117,235
2024-05-26 15:49:53,118,119,129,119,234
2024-05-26 15:49:53,119,119,130,121,234
2024-05-26 15:49:53,120,120,132,122,234
2024-05-26 15:49:53,125,123,138,127,234
2024-05-26 15:49:53,129,126,142,128,234
2024-05-26 15:49:53,127,124,141,125,234
2024-05-26 15:49:53,124,122,139,122,235
2024-05-26 15:49:53,126,125,140,125,234
2024-05-26 15:49:53,133,134,147,135,234
2024-05-26 15:49:53,144,145,157,146,234
2024-05-26 15:49:53,151,153,163,152,235
2024-05-26 15:49:53,149,151,160,149,234
2024-05-26 15:49:53,141,142,152,139,235
2024-05-26 15:49:53,126,126,136,123,234
2024-05-26 15:49:53,108,107,116,102,234
2024-05-26 15:49:53,97,96,103,91,234
2024-05-26 15:49:53,102,101,109,99,234
2024-05-26 15:49:53,115,113,125,116,235
2024-05-26 15:49:53,125,123,136,127,234
2024-05-26 15:49:53,128,126,139,129,234
2024-05-26 15:49:53,121,119,130,121,235
2024-05-26 15:49:53,121,119,128,121,235
2024-05-26 15:49:53,126,125,132,126,235
2024-05-26 15:49:53,128,128,134,129,235
2024-05-26 15:49:53,123,122,129,123,235
2024-05-26 15:49:53,118,116,123,117,234
2024-05-26 15:49:53,120,117,124,119,234
2024-05-26 15:49:53,122,119,126,121,234
2024-05-26 15:49:53,125,123,129,124,234
2024-05-26 15:49:53,123,120,127,122,234
2024-05-26 15:49:53,124,122,128,123,235
2024-05-26 15:49:53,128,127,134,130,234
2024-05-26 15:49:53,134,132,138,135,234
2024-05-26 15:49:53,136,135,139,138,234
2024-05-26 15:49:53,131,132,135,133,235
2024-05-26 15:49:53,121,120,126,122,234
2024-05-26 15:49:53,121,119,125,120,235
2024-05-26 15:49:53,130,128,134,130,234
2024-05-26 15:49:53,137,134,140,137,235
2024-05-26 15:49:53,136,132,138,135,234
2024-05-26 15:49:53,134,129,135,132,234
2024-05-26 15:49:53,132,127,134,130,234
2024-05-26 15:49:53,131,126,133,130,234
2024-05-26 15:49:53,130,126,133,130,235
2024-05-26 15:49:53,129,125,131,128,234
2024-05-26 15:49:53,126,124,127,124,235
2024-05-26 15:49:53,128,128,129,126,234
2024-05-26 15:49:53,137,135,138,135,234
2024-05-26 15:49:53,142,140,142,140,235
2024-05-26 15:49:53,139,138,140,136,234
2024-05-26 15:49:53,133,131,133,129,234
2024-05-26 15:49:53,137,135,136,131,234
2024-05-26 15:49:53,141,138,139,135,234
2024-05-26 15:49:53,143,140,140,135,234
2024-05-26 15:49:53,143,139,140,135,234
2024-05-26 15:49:53,144,137,140,135,234
2024-05-26 15:49:53,145,139,143,137,234
2024-05-26 15:49:53,153,145,148,146,234
2024-05-26 15:49:53,153,144,150,146,235
2024-05-26 15:49:53,145,135,143,138,234
2024-05-26 15:49:53,138,127,134,128,234
2024-05-26 15:49:53,135,124,129,124,235
2024-05-26 15:49:53,141,129,134,130,234
2024-05-26 15:49:53,149,135,140,138,234
2024-05-26 15:49:54,146,133,136,134,235
2024-05-26 15:49:54,142,128,131,128,235
2024-05-26 15:49:54,140,124,130,126,234
2024-05-26 15:49:54,141,125,131,127,235
2024-05-26 15:49:54,145,129,137,131,234
2024-05-26 15:49:54,145,128,135,130,234
2024-05-26 15:49:54,140,125,129,124,234
2024-05-26 15:49:54,137,124,125,121,234
2024-05-26 15:49:54,138,126,126,123,235
2024-05-26 15:49:54,138,126,128,124,234
2024-05-26 15:49:54,135,123,126,121,234
2024-05-26 15:49:54,134,122,124,118,234
2024-05-26 15:49:54,130,118,122,114,234
2024-05-26 15:49:54,129,117,121,114,234
2024-05-26 15:49:54,127,117,120,114,234
2024-05-26 15:49:54,124,114,116,111,234
2024-05-26 15:49:54,122,113,113,107,234
2024-05-26 15:49:54,124,116,116,110,234
2024-05-26 15:49:54,130,123,124,119,234
2024-05-26 15:49:54,128,124,124,119,235
2024-05-26 15:49:54,127,124,123,118,235
2024-05-26 15:49:54,126,122,123,117,234
2024-05-26 15:49:54,126,123,124,118,234
2024-05-26 15:49:54,129,125,127,122,234
2024-05-26 15:49:54,131,127,130,124,235
2024-05-26 15:49:54,129,123,127,120,234
2024-05-26 15:49:54,123,119,120,113,234
2024-05-26 15:49:54,123,119,121,114,234
2024-05-26 15:49:54,126,123,125,118,234
2024-05-26 15:49:54,129,126,127,122,234
2024-05-26 15:49:54,126,122,123,118,234
2024-05-26 15:49:54,122,118,119,113,234
2024-05-26 15:49:54,120,117,117,112,234
2024-05-26 15:49:54,120,118,118,113,234
2024-05-26 15:49:54,124,121,124,117,235
2024-05-26 15:49:54,125,124,127,119,234
2024-05-26 15:49:54,125,123,125,118,235
2024-05-26 15:49:54,125,124,125,120,235
2024-05-26 15:49:54,128,126,126,122,234
2024-05-26 15:49:54,125,122,121,117,234
2024-05-26 15:49:54,122,119,117,111,234
2024-05-26 15:49:54,121,117,116,111,234
2024-05-26 15:49:54,124,120,120,115,234
2024-05-26 15:49:54,129,127,126,122,234
2024-05-26 15:49:54,131,129,126,124,234
2024-05-26 15:49:54,128,125,123,121,234
2024-05-26 15:49:54,128,124,122,121,234
2024-05-26 15:49:54,131,128,126,125,234
2024-05-26 15:49:54,136,133,131,131,235
2024-05-26 15:49:54,133,132,128,127,235
2024-05-26 15:49:54,126,124,119,117,234
2024-05-26 15:49:54,124,121,115,113,235
2024-05-26 15:49:54,126,122,116,112,235
2024-05-26 15:49:54,130,126,121,117,235
2024-05-26 15:49:54,135,131,125,122,235
2024-05-26 15:49:54,136,129,125,119,234
2024-05-26 15:49:54,135,128,123,115,234
2024-05-26 15:49:54,133,128,120,114,234
2024-05-26 15:49:54,134,128,122,115,234
2024-05-26 15:49:54,134,126,123,114,234
2024-05-26 15:49:54,133,125,124,114,234
2024-05-26 15:49:54,133,126,125,115,234
2024-05-26 15:49:54,134,128,126,116,234
2024-05-26 15:49:54,134,128,126,117,234
2024-05-26 15:49:54,134,129,125,117,234
2024-05-26 15:49:54,133,127,122,117,234
2024-05-26 15:49:54,131,124,119,116,234
2024-05-26 15:49:54,128,123,118,114,234
2024-05-26 15:49:54,130,126,123,117,235
2024-05-26 15:49:54,133,126,127,120,235
2024-05-26 15:49:54,131,124,125,117,234
2024-05-26 15:49:54,127,122,121,113,234
2024-05-26 15:49:54,125,121,119,111,234
2024-05-26 15:49:54,126,124,121,113,234
2024-05-26 15:49:54,130,126,126,120,234
2024-05-26 15:49:54,128,124,124,118,234
2024-05-26 15:49:54,128,123,124,117,234
2024-05-26 15:49:54,127,123,124,118,234
2024-05-26 15:49:54,128,126,124,121,234
2024-05-26 15:49:54,132,130,127,125,234
2024-05-26 15:49:54,134,131,127,126,235
2024-05-26 15:49:54,127,122,121,117,234
2024-05-26 15:49:54,128,124,122,118,235
2024-05-26 15:49:54,136,133,131,127,234
2024-05-26 15:49:54,146,145,142,140,234
2024-05-26 15:49:54,155,155,151,150,235
2024-05-26 15:49:54,164,163,160,160,234
2024-05-26 15:49:54,170,167,165,166,235
2024-05-26 15:49:54,167,163,161,160,235
2024-05-26 15:49:54,154,150,146,144,234
2024-05-26 15:49:54,133,128,123,120,234
2024-05-26 15:49:54,110,104,100,95,234
2024-05-26 15:49:54,109,102,102,97,235
2024-05-26 15:49:54,119,112,113,111,235
2024-05-26 15:49:54,127,119,120,122,234
2024-05-26 15:49:54,128,121,120,123,235
2024-05-26 15:49:54,127,120,119,120,234
2024-05-26 15:49:54,127,118,120,118,234
2024-05-26 15:49:54,127,118,119,119,234
2024-05-26 15:49:54,130,120,122,123,234
2024-05-26 15:49:54,130,118,122,123,235
2024-05-26 15:49:54,129,117,120,123,234
2024-05-26 15:49:54,138,128,129,134,235
2024-05-26 15:49:54,146,135,137,142,235
2024-05-26 15:49:54,145,132,134,140,234
2024-05-26 15:49:54,139,125,127,132,234
2024-05-26 15:49:54,134,120,121,126,235
2024-05-26 15:49:54,132,118,119,124,234
2024-05-26 15:49:54,132,117,119,125,234
2024-05-26 15:49:54,132,117,121,126,234
2024-05-26 15:49:54,130,115,120,126,234
2024-05-26 15:49:54,129,114,118,124,234
2024-05-26 15:49:54,133,117,121,126,235
2024-05-26 15:49:54,139,122,127,133,235
2024-05-26 15:49:54,140,125,130,135,234
2024-05-26 15:49:54,135,120,125,130,234
2024-05-26 15:49:54,132,118,124,127,234
2024-05-26 15:49:54,131,117,122,126,234
2024-05-26 15:49:54,136,122,127,131,235
2024-05-26 15:49:54,143,128,133,138,234
2024-05-26 15:49:54,144,127,132,136,235
2024-05-26 15:49:54,143,124,130,132,234
2024-05-26 15:49:54,144,128,128,133,234
2024-05-26 15:49:54,154,133,138,142,234
2024-05-26 15:49:54,153,130,140,139,234
2024-05-26 15:49:54,146,124,134,129,234
2024-05-26 15:49:54,143,120,131,124,235
2024-05-26 15:49:54,140,118,127,121,234
2024-05-26 15:49:54,140,118,127,121,235
2024-05-26 15:49:54,142,120,130,124,234
2024-05-26 15:49:54,147,126,136,131,234
2024-05-26 15:49:54,149,127,139,134,234
2024-05-26 15:49:54,148,126,137,132,234
2024-05-26 15:49:54,147,125,136,131,234
2024-05-26 15:49:54,153,130,140,137,235
2024-05-26 15:49:54,154,131,141,138,234
2024-05-26 15:49:54,151,127,138,135,234
2024-05-26 15:49:54,149,124,136,131,234
2024-05-26 15:49:54,151,125,137,134,234
2024-05-26 15:49:54,155,128,141,138,234
2024-05-26 15:49:54,157,130,143,140,234
2024-05-26 15:49:54,157,129,143,139,234
2024-05-26 15:49:54,153,126,138,135,235
2024-05-26 15:49:54,148,122,133,130,234
2024-05-26 15:49:54,147,122,132,130,234
2024-05-26 15:49:54,145,119,130,127,234
2024-05-26 15:49:54,140,114,125,121,235
2024-05-26 15:49:54,134,109,121,116,234
2024-05-26 15:49:54,136,111,123,119,234
2024-05-26 15:49:54,139,115,126,124,234
2024-05-26 15:49:54,136,114,124,122,234
2024-05-26 15:49:54,131,108,120,116,235
2024-05-26 15:49:54,127,105,116,112,234
2024-05-26 15:49:54,131,109,121,120,234
2024-05-26 15:49:54,139,116,131,130,235
2024-05-26 15:49:54,139,116,133,130,235
2024-05-26 15:49:54,135,110,127,123,234
2024-05-26 15:49:54,131,107,124,116,234
2024-05-26 15:49:54,131,107,125,117,235
2024-05-26 15:49:54,131,108,125,118,234
2024-05-26 15:49:54,128,105,123,115,234
2024-05-26 15:49:54,125,102,120,112,235
2024-05-26 15:49:54,125,101,118,111,234
2024-05-26 15:49:54,131,108,124,117,235
2024-05-26 15:49:54,137,115,131,126,235
2024-05-26 15:49:54,138,116,131,126,234
2024-05-26 15:49:54,139,116,132,126,235
2024-05-26 15:49:54,139,116,132,125,234
2024-05-26 15:49:54,137,113,128,121,235
2024-05-26 15:49:54,134,110,124,118,234
2024-05-26 15:49:54,133,109,124,117,234
2024-05-26 15:49:54,132,108,123,117,234
2024-05-26 15:49:54,131,106,121,115,234
2024-05-26 15:49:54,133,108,124,117,234
2024-05-26 15:49:54,137,112,129,121,235
2024-05-26 15:49:54,134,109,125,117,234
2024-05-26 15:49:54,128,105,118,111,235
2024-05-26 15:49:54,132,109,123,115,234
2024-05-26 15:49:54,136,112,129,121,234
2024-05-26 15:49:54,138,111,130,124,234
2024-05-26 15:49:54,137,110,127,123,234
2024-05-26 15:49:54,132,106,122,118,234
2024-05-26 15:49:54,131,106,121,117,234
2024-05-26 15:49:54,134,109,123,121,235
2024-05-26 15:49:54,140,115,130,127,234
2024-05-26 15:49:54,135,110,125,122,235
2024-05-26 15:49:54,132,107,122,119,234
2024-05-26 15:49:54,133,106,123,119,234
2024-05-26 15:49:54,135,110,125,122,234
2024-05-26 15:49:54,137,112,128,125,234
2024-05-26 15:49:54,137,111,129,125,234
2024-05-26 15:49:54,134,109,127,120,234
2024-05-26 15:49:54,137,112,130,123,234
2024-05-26 15:49:54,140,116,132,126,234
2024-05-26 15:49:54,138,114,130,124,235
2024-05-26 15:49:54,135,111,126,120,234
2024-05-26 15:49:54,133,110,121,117,234
2024-05-26 15:49:54,135,111,124,118,234
2024-05-26 15:49:54,142,117,134,126,234
2024-05-26 15:49:54,148,123,141,131,235
2024-05-26 15:49:54,148,123,142,132,234
2024-05-26 15:49:54,145,122,138,128,234
2024-05-26 15:49:54,142,120,135,125,234
2024-05-26 15:49:54,140,117,134,122,234
2024-05-26 15:49:54,137,113,133,118,234
2024-05-26 15:49:54,134,110,130,115,234
2024-05-26 15:49:54,131,108,126,112,234
2024-05-26 15:49:54,133,111,128,116,235
2024-05-26 15:49:54,136,115,131,120,234
2024-05-26 15:49:54,136,114,132,121,235
2024-05-26 15:49:54,135,114,130,119,234
2024-05-26 15:49:54,133,111,128,117,234
2024-05-26 15:49:54,129,109,126,115,234
2024-05-26 15:49:54,131,111,128,118,234
2024-05-26 15:49:54,134,113,130,122,235
2024-05-26 15:49:54,137,116,132,124,234
2024-05-26 15:49:54,138,116,130,124,234
2024-05-26 15:49:54,140,120,133,127,235
2024-05-26 15:49:54,142,124,136,128,234
2024-05-26 15:49:54,146,128,140,132,234
2024-05-26 15:49:54,146,128,141,130,234
2024-05-26 15:49:54,145,127,141,129,234
2024-05-26 15:49:54,150,131,147,136,235
2024-05-26 15:49:54,159,142,157,147,235
2024-05-26 15:49:54,168,150,165,155,234
2024-05-26 15:49:54,173,156,169,159,235
2024-05-26 15:49:54,167,150,164,151,235
2024-05-26 15:49:54,152,137,147,133,234
2024-05-26 15:49:54,135,121,129,117,235
2024-05-26 15:49:54,124,111,118,107,235
2024-05-26 15:49:54,121,107,116,104,234
2024-05-26 15:49:54,122,110,117,106,235
2024-05-26 15:49:54,127,114,123,111,234
2024-05-26 15:49:54,132,121,130,119,234
2024-05-26 15:49:54,140,130,138,127,234
2024-05-26 15:49:54,142,132,140,127,234
2024-05-26 15:49:54,138,127,132,121,234
2024-05-26 15:49:54,135,124,130,117,234
2024-05-26 15:49:54,138,126,133,121,234
2024-05-26 15:49:54,137,125,132,121,234
2024-05-26 15:49:54,133,122,128,118,234
2024-05-26 15:49:54,133,123,129,118,234
2024-05-26 15:49:54,136,126,134,122,234
2024-05-26 15:49:54,138,127,136,123,234
2024-05-26 15:49:54,138,128,138,124,235
2024-05-26 15:49:54,134,127,134,120,234
2024-05-26 15:49:54,126,118,125,110,234
2024-05-26 15:49:54,128,122,126,112,235
2024-05-26 15:49:54,139,133,139,126,234
2024-05-26 15:49:54,140,132,142,126,234
2024-05-26 15:49:55,136,128,138,121,234
2024-05-26 15:49:55,139,130,139,122,234
2024-05-26 15:49:55,145,136,144,128,234
2024-05-26 15:49:55,149,139,146,132,234
2024-05-26 15:49:55,146,137,142,128,234
2024-05-26 15:49:55,141,130,134,122,234
2024-05-26 15:49:55,139,128,133,119,234
2024-05-26 15:49:55,138,128,134,118,234
2024-05-26 15:49:55,139,130,136,120,235
2024-05-26 15:49:55,143,135,140,126,235
2024-05-26 15:49:55,147,139,144,130,235
2024-05-26 15:49:55,146,138,143,129,234
2024-05-26 15:49:55,146,137,142,127,234
2024-05-26 15:49:55,147,139,143,129,234
2024-05-26 15:49:55,149,142,145,133,234
2024-05-26 15:49:55,148,139,145,133,234
2024-05-26 15:49:55,141,133,138,126,234
2024-05-26 15:49:55,136,129,134,121,234
2024-05-26 15:49:55,146,140,146,133,235
2024-05-26 15:49:55,154,148,154,143,234
2024-05-26 15:49:55,153,146,153,141,234
2024-05-26 15:49:55,146,138,144,132,234
2024-05-26 15:49:55,141,134,138,126,235
2024-05-26 15:49:55,140,135,137,127,235
2024-05-26 15:49:55,145,139,142,132,235
2024-05-26 15:49:55,146,140,144,134,234
2024-05-26 15:49:55,148,142,146,134,234
2024-05-26 15:49:55,149,142,146,134,234
2024-05-26 15:49:55,150,144,147,135,235
2024-05-26 15:49:55,148,144,146,135,235
2024-05-26 15:49:55,144,139,140,130,234
2024-05-26 15:49:55,139,134,135,127,234
2024-05-26 15:49:55,136,132,133,125,234
2024-05-26 15:49:55,134,130,132,123,234
2024-05-26 15:49:55,133,130,131,122,234
2024-05-26 15:49:55,133,130,131,122,234
2024-05-26 15:49:55,129,126,128,119,234
2024-05-26 15:49:55,126,124,125,116,235
2024-05-26 15:49:55,126,123,127,115,234
2024-05-26 15:49:55,128,125,129,116,234
2024-05-26 15:49:55,125,124,127,112,235
2024-05-26 15:49:55,123,121,123,108,234
2024-05-26 15:49:55,122,121,121,107,234
2024-05-26 15:49:55,125,124,124,111,235
2024-05-26 15:49:55,128,126,127,115,235
2024-05-26 15:49:55,130,128,128,116,235
2024-05-26 15:49:55,131,128,127,116,234
2024-05-26 15:49:55,133,129,128,117,235
2024-05-26 15:49:55,134,129,128,116,234
2024-05-26 15:49:55,133,128,129,115,234
2024-05-26 15:49:55,134,128,131,117,234
2024-05-26 15:49:55,131,126,129,116,234
2024-05-26 15:49:55,132,127,128,116,234
2024-05-26 15:49:55,135,130,130,118,235
2024-05-26 15:49:55,133,127,129,116,235
2024-05-26 15:49:55,133,126,128,115,235
2024-05-26 15:49:55,133,127,129,116,235
2024-05-26 15:49:55,133,128,128,117,235
2024-05-26 15:49:55,133,128,128,117,235
2024-05-26 15:49:55,134,131,130,119,234
2024-05-26 15:49:55,128,125,126,112,235
2024-05-26 15:49:55,124,119,122,105,234
2024-05-26 15:49:55,126,121,125,109,234
2024-05-26 15:49:55,130,125,130,115,234
2024-05-26 15:49:55,132,127,133,117,234
2024-05-26 15:49:55,134,129,136,119,234
2024-05-26 15:49:55,133,128,135,117,235
2024-05-26 15:49:55,131,127,132,115,234
2024-05-26 15:49:55,131,128,132,116,234
2024-05-26 15:49:55,133,132,132,119,234
2024-05-26 15:49:55,133,130,131,118,234
2024-05-26 15:49:55,128,123,127,112,234
2024-05-26 15:49:55,125,119,124,110,234
2024-05-26 15:49:55,125,120,125,111,234
2024-05-26 15:49:55,128,123,129,116,235
2024-05-26 15:49:55,132,128,134,122,234
2024-05-26 15:49:55,131,126,133,121,234
2024-05-26 15:49:55,128,124,129,118,234
2024-05-26 15:49:55,129,126,130,118,235
2024-05-26 15:49:55,127,125,130,117,234
2024-05-26 15:49:55,125,125,130,117,235
2024-05-26 15:49:55,119,120,124,112,235
2024-05-26 15:49:55,119,124,127,115,235
2024-05-26 15:49:55,123,128,131,121,234
2024-05-26 15:49:55,123,129,134,122,235
2024-05-26 15:49:55,121,128,133,121,234
2024-05-26 15:49:55,118,126,132,121,234
2024-05-26 15:49:55,112,123,128,117,234
2024-05-26 15:49:55,113,126,130,120,234
2024-05-26 15:49:55,114,129,133,123,234
2024-05-26 15:49:55,112,128,132,122,234
2024-05-26 15:49:55,110,127,130,120,234
2024-05-26 15:49:55,109,127,130,120,234
2024-05-26 15:49:55,105,125,124,116,235
2024-05-26 15:49:55,101,124,121,114,235
2024-05-26 15:49:55,100,123,124,115,234
2024-05-26 15:49:55,99,122,126,115,235
2024-05-26 15:49:55,94,119,122,112,235
2024-05-26 15:49:55,91,118,120,112,235
2024-05-26 15:49:55,93,122,125,118,235
2024-05-26 15:49:55,92,123,125,119,235
2024-05-26 15:49:55,85,116,117,112,234
2024-05-26 15:49:55,85,116,117,112,234
2024-05-26 15:49:55,87,118,120,116,234
2024-05-26 15:49:55,85,116,121,115,234
2024-05-26 15:49:55,85,115,118,114,235
2024-05-26 15:49:55,88,120,124,119,234
2024-05-26 15:49:55,91,123,128,124,235
2024-05-26 15:49:55,96,128,134,128,234
2024-05-26 15:49:55,103,135,142,136,234
2024-05-26 15:49:55,109,142,149,143,234
2024-05-26 15:49:55,112,144,150,146,234
2024-05-26 15:49:55,112,143,150,145,234
2024-05-26 15:49:55,110,142,147,143,235
2024-05-26 15:49:55,101,133,138,133,234
2024-05-26 15:49:55,80,113,117,110,234
2024-05-26 15:49:55,60,93,97,88,235
2024-05-26 15:49:55,53,86,90,82,235
2024-05-26 15:49:55,60,96,100,93,234
2024-05-26 15:49:55,73,108,116,110,235
2024-05-26 15:49:55,81,116,124,118,234
2024-05-26 15:49:55,80,115,121,114,234
2024-05-26 15:49:55,80,114,120,112,234
2024-05-26 15:49:55,82,115,122,115,235
2024-05-26 15:49:55,80,112,121,113,234
2024-05-26 15:49:55,78,111,119,109,235
2024-05-26 15:49:55,77,109,117,107,235
2024-05-26 15:49:55,77,108,117,108,234
2024-05-26 15:49:55,77,108,118,110,234
2024-05-26 15:49:55,78,109,119,111,234
2024-05-26 15:49:55,74,106,113,107,235
2024-05-26 15:49:55,72,105,110,104,235
2024-05-26 15:49:55,74,108,112,106,234
2024-05-26 15:49:55,79,109,117,111,235
2024-05-26 15:49:55,85,114,122,117,235
2024-05-26 15:49:55,87,115,123,118,234
2024-05-26 15:49:55,85,113,123,116,234
2024-05-26 15:49:55,82,111,119,112,235
2024-05-26 15:49:55,80,110,117,110,234
2024-05-26 15:49:55,79,110,116,108,234
2024-05-26 15:49:55,79,111,117,109,234
2024-05-26 15:49:55,79,111,115,109,234
2024-05-26 15:49:55,82,114,117,111,234
2024-05-26 15:49:55,92,122,126,122,234
2024-05-26 15:49:55,89,118,123,118,234
2024-05-26 15:49:55,79,107,113,105,235
2024-05-26 15:49:55,74,101,108,99,234
2024-05-26 15:49:55,78,104,112,102,235
2024-05-26 15:49:55,85,113,120,112,234
2024-05-26 15:49:55,93,120,127,121,235
2024-05-26 15:49:55,95,120,128,120,234
2024-05-26 15:49:55,94,116,125,116,234
2024-05-26 15:49:55,95,117,126,118,234
2024-05-26 15:49:55,98,120,130,122,234
2024-05-26 15:49:55,99,123,130,123,234
2024-05-26 15:49:55,99,122,127,120,234
2024-05-26 15:49:55,99,121,124,117,234
2024-05-26 15:49:55,105,124,128,120,234
2024-05-26 15:49:55,117,132,136,129,234
2024-05-26 15:49:55,124,136,138,133,234
2024-05-26 15:49:55,121,130,131,124,235
2024-05-26 15:49:55,118,123,126,117,235
2024-05-26 15:49:55,120,122,125,115,234
2024-05-26 15:49:55,127,124,126,118,234
2024-05-26 15:49:55,137,125,127,120,233
2024-05-26 15:49:55,131,116,118,111,234
2024-05-26 15:49:55,130,115,113,109,235
2024-05-26 15:49:55,133,116,113,111,235
2024-05-26 15:49:55,134,117,114,112,234
2024-05-26 15:49:55,131,113,110,108,235
2024-05-26 15:49:55,130,110,105,104,234
2024-05-26 15:49:55,132,111,106,105,234
2024-05-26 15:49:55,139,117,113,111,234
2024-05-26 15:49:55,147,122,119,116,234
2024-05-26 15:49:55,144,119,116,114,234
2024-05-26 15:49:55,139,113,110,107,235
2024-05-26 15:49:55,135,108,105,103,235
2024-05-26 15:49:55,139,112,109,108,234
2024-05-26 15:49:55,142,113,113,112,234
2024-05-26 15:49:55,142,111,112,109,234
2024-05-26 15:49:55,143,111,112,110,234
2024-05-26 15:49:55,145,111,112,110,235
2024-05-26 15:49:55,145,111,112,108,234
2024-05-26 15:49:55,143,110,110,106,235
2024-05-26 15:49:55,143,110,111,106,234
2024-05-26 15:49:55,144,111,112,107,234
2024-05-26 15:49:55,145,112,112,108,235
2024-05-26 15:49:55,149,115,116,112,234
2024-05-26 15:49:55,150,115,114,112,235
2024-05-26 15:49:55,150,113,113,111,235
2024-05-26 15:49:55,151,113,114,111,235
2024-05-26 15:49:55,153,115,117,112,234
2024-05-26 15:49:55,154,117,119,115,235
2024-05-26 15:49:55,153,116,118,115,235
2024-05-26 15:49:55,153,116,115,113,234
2024-05-26 15:49:55,154,117,118,115,234
2024-05-26 15:49:55,154,113,118,114,235
2024-05-26 15:49:55,150,110,116,111,234
2024-05-26 15:49:55,147,107,113,109,235
2024-05-26 15:49:55,145,106,111,107,234
2024-05-26 15:49:55,146,107,112,109,234
2024-05-26 15:49:55,150,110,115,114,235
2024-05-26 15:49:55,153,113,120,117,235
2024-05-26 15:49:55,153,113,119,116,234
2024-05-26 15:49:55,151,112,116,114,234
2024-05-26 15:49:55,151,113,118,115,234
2024-05-26 15:49:55,151,115,118,116,235
2024-05-26 15:49:55,147,111,114,113,235
2024-05-26 15:49:55,146,109,112,108,235
2024-05-26 15:49:55,144,107,111,107,234
2024-05-26 15:49:55,148,110,115,112,234
2024-05-26 15:49:55,155,119,124,120,234
2024-05-26 15:49:55,161,126,129,126,235
2024-05-26 15:49:55,156,122,126,121,235
2024-05-26 15:49:55,150,115,122,114,235
2024-05-26 15:49:55,146,112,119,111,234
2024-05-26 15:49:55,147,113,118,112,234
2024-05-26 15:49:55,148,115,118,113,234
2024-05-26 15:49:55,148,116,118,113,234
2024-05-26 15:49:55,147,116,118,112,234
2024-05-26 15:49:55,147,115,119,112,234
2024-05-26 15:49:55,147,117,121,114,235
2024-05-26 15:49:55,148,118,122,116,234
2024-05-26 15:49:55,148,118,120,116,235
2024-05-26 15:49:55,145,116,118,114,235
2024-05-26 15:49:55,142,114,115,111,235
2024-05-26 15:49:55,144,114,115,110,235
2024-05-26 15:49:55,144,114,116,110,235
2024-05-26 15:49:55,142,111,113,107,234
2024-05-26 15:49:55,144,113,115,110,235
2024-05-26 15:49:55,146,115,117,113,234
2024-05-26 15:49:55,146,117,119,116,234
2024-05-26 15:49:55,148,120,122,120,234
2024-05-26 15:49:55,148,120,122,120,234
2024-05-26 15:49:55,147,119,121,119,234
2024-05-26 15:49:55,145,118,117,117,234
2024-05-26 15:49:55,145,118,117,118,235
2024-05-26 15:49:55,145,117,119,118,234
2024-05-26 15:49:55,142,115,116,115,235
2024-05-26 15:49:55,137,111,112,111,234
2024-05-26 15:49:55,136,112,112,111,235
2024-05-26 15:49:55,140,116,117,115,234
2024-05-26 15:49:55,145,122,124,120,234
2024-05-26 15:49:55,148,126,129,124,234
2024-05-26 15:49:55,151,131,132,127,234
2024-05-26 15:49:55,157,137,138,133,234
2024-05-26 15:49:55,165,145,145,142,235
2024-05-26 15:49:56,163,145,144,141,234
2024-05-26 15:49:56,156,138,137,134,234
2024-05-26 15:49:56,144,128,126,123,235
2024-05-26 15:49:56,131,116,113,108,235
2024-05-26 15:49:56,120,105,101,97,234
2024-05-26 15:49:56,118,104,100,96,235
2024-05-26 15:49:56,122,106,104,102,234
2024-05-26 15:49:56,125,109,108,105,234
2024-05-26 15:49:56,131,114,114,111,235
2024-05-26 15:49:56,139,121,120,119,235
2024-05-26 15:49:56,143,127,125,123,234
2024-05-26 15:49:56,143,128,125,123,235
2024-05-26 15:49:56,136,120,118,115,234
2024-05-26 15:49:56,128,112,111,105,234
2024-05-26 15:49:56,128,113,111,106,234
2024-05-26 15:49:56,130,116,115,111,235
2024-05-26 15:49:56,133,118,117,113,235
2024-05-26 15:49:56,129,115,114,110,234
2024-05-26 15:49:56,128,116,112,111,235
2024-05-26 15:49:56,132,122,117,116,234
2024-05-26 15:49:56,135,124,120,119,235
2024-05-26 15:49:56,134,123,119,119,234
2024-05-26 15:49:56,134,123,120,117,234
2024-05-26 15:49:56,133,122,119,115,234
2024-05-26 15:49:56,131,122,119,114,234
2024-05-26 15:49:56,130,124,121,116,234
2024-05-26 15:49:56,130,124,121,116,234
2024-05-26 15:49:56,131,125,123,119,234
2024-05-26 15:49:56,137,132,129,127,234
2024-05-26 15:49:56,141,136,132,130,235
2024-05-26 15:49:56,141,133,133,129,235
2024-05-26 15:49:56,140,131,132,126,234
2024-05-26 15:49:56,134,125,124,120,235
2024-05-26 15:49:56,126,117,116,112,234
2024-05-26 15:49:56,127,120,116,113,234
2024-05-26 15:49:56,134,128,123,121,234
2024-05-26 15:49:56,138,131,127,125,235
2024-05-26 15:49:56,137,128,125,123,235
2024-05-26 15:49:56,136,125,122,119,235
2024-05-26 15:49:56,135,125,121,118,235
2024-05-26 15:49:56,141,131,128,125,235
2024-05-26 15:49:56,143,134,131,128,235
2024-05-26 15:49:56,140,133,129,124,235
2024-05-26 15:49:56,140,132,128,124,234
2024-05-26 15:49:56,138,131,127,123,235
2024-05-26 15:49:56,140,133,128,125,235
2024-05-26 15:49:56,142,134,130,127,234
2024-05-26 15:49:56,142,135,130,128,235
2024-05-26 15:49:56,138,131,125,123,234
2024-05-26 15:49:56,136,130,124,122,235
2024-05-26 15:49:56,142,134,130,128,234
2024-05-26 15:49:56,143,135,132,128,235
2024-05-26 15:49:56,139,131,128,123,234
2024-05-26 15:49:56,133,126,123,116,235
2024-05-26 15:49:56,133,126,123,116,234
2024-05-26 15:49:56,133,127,123,118,234
2024-05-26 15:49:56,128,123,119,114,235
2024-05-26 15:49:56,125,120,116,111,235
2024-05-26 15:49:56,123,118,115,109,234
2024-05-26 15:49:56,123,118,117,108,235
2024-05-26 15:49:56,124,120,121,110,234
2024-05-26 15:49:56,121,120,120,110,234
2024-05-26 15:49:56,116,116,114,104,234
2024-05-26 15:49:56,110,111,109,98,235
2024-05-26 15:49:56,110,112,111,99,234
2024-05-26 15:49:56,117,119,120,108,234
2024-05-26 15:49:56,122,123,124,113,235
2024-05-26 15:49:56,113,115,115,102,234
2024-05-26 15:49:56,104,106,106,92,234
2024-05-26 15:49:56,108,109,111,97,234
2024-05-26 15:49:56,115,116,120,106,235
2024-05-26 15:49:56,116,118,122,107,235
2024-05-26 15:49:56,113,115,116,103,234
2024-05-26 15:49:56,111,114,114,101,234
2024-05-26 15:49:56,113,116,116,104,235
2024-05-26 15:49:56,116,120,119,108,234
2024-05-26 15:49:56,115,116,119,106,234
2024-05-26 15:49:56,110,110,112,98,235
2024-05-26 15:49:56,108,107,110,95,235
2024-05-26 15:49:56,110,110,112,97,235
2024-05-26 15:49:56,115,114,117,101,234
2024-05-26 15:49:56,115,112,116,101,234
2024-05-26 15:49:56,116,111,117,100,234
2024-05-26 15:49:56,117,113,119,104,234
2024-05-26 15:49:56,120,116,123,109,235
2024-05-26 15:49:56,121,118,123,111,234
2024-05-26 15:49:56,119,116,120,109,235
2024-05-26 15:49:56,112,109,113,101,234
2024-05-26 15:49:56,107,105,108,95,234
2024-05-26 15:49:56,113,113,115,104,235
2024-05-26 15:49:56,121,121,123,113,234
2024-05-26 15:49:56,122,124,123,115,235
2024-05-26 15:49:56,117,116,118,107,234
2024-05-26 15:49:56,122,120,125,111,235
2024-05-26 15:49:56,127,123,132,117,234
2024-05-26 15:49:56,126,121,131,116,235
2024-05-26 15:49:56,120,116,124,110,235
2024-05-26 15:49:56,114,110,116,102,235
2024-05-26 15:49:56,114,110,116,102,234
2024-05-26 15:49:56,118,116,122,109,234
2024-05-26 15:49:56,121,120,125,113,235
2024-05-26 15:49:56,116,116,118,108,235
2024-05-26 15:49:56,108,108,110,100,234
2024-05-26 15:49:56,113,114,116,106,234
2024-05-26 15:49:56,122,123,124,116,235
2024-05-26 15:49:56,126,128,127,119,235
2024-05-26 15:49:56,124,127,125,117,235
2024-05-26 15:49:56,121,124,123,114,235
2024-05-26 15:49:56,117,118,119,109,234
2024-05-26 15:49:56,119,119,121,110,234
2024-05-26 15:49:56,120,120,124,110,234
2024-05-26 15:49:56,119,120,123,108,234
2024-05-26 15:49:56,114,115,118,102,235
2024-05-26 15:49:56,111,110,114,96,235
2024-05-26 15:49:56,119,119,124,106,234
2024-05-26 15:49:56,127,128,131,113,235
2024-05-26 15:49:56,124,124,125,109,234
2024-05-26 15:49:56,116,116,118,99,234
2024-05-26 15:49:56,114,112,117,96,235
2024-05-26 15:49:56,113,112,117,96,235
2024-05-26 15:49:56,116,115,120,101,234
2024-05-26 15:49:56,119,117,123,106,235
2024-05-26 15:49:56,119,116,123,105,234
2024-05-26 15:49:56,116,113,120,102,235
2024-05-26 15:49:56,117,117,121,104,235
2024-05-26 15:49:56,119,121,122,107,235
2024-05-26 15:49:56,119,120,123,107,234
2024-05-26 15:49:56,116,116,121,104,234
2024-05-26 15:49:56,113,113,118,102,234
2024-05-26 15:49:56,111,112,116,101,234
2024-05-26 15:49:56,113,114,118,105,234
2024-05-26 15:49:56,115,117,120,109,235
2024-05-26 15:49:56,111,113,115,104,234
2024-05-26 15:49:56,112,114,116,106,234
2024-05-26 15:49:56,118,121,123,114,234
2024-05-26 15:49:56,130,133,135,128,234
2024-05-26 15:49:56,134,137,139,133,234
2024-05-26 15:49:56,135,137,139,132,235
2024-05-26 15:49:56,137,138,140,134,234
2024-05-26 15:49:56,139,140,142,137,235
2024-05-26 15:49:56,147,149,151,149,235
2024-05-26 15:49:56,154,153,155,156,235
2024-05-26 15:49:56,146,144,145,146,234
2024-05-26 15:49:56,128,123,124,124,235
2024-05-26 15:49:56,103,100,98,97,234
2024-05-26 15:49:56,101,100,99,97,235
2024-05-26 15:49:56,104,103,103,103,235
2024-05-26 15:49:56,105,103,107,105,235
2024-05-26 15:49:56,108,103,112,108,235
2024-05-26 15:49:56,112,107,116,113,234
2024-05-26 15:49:56,117,114,122,120,234
2024-05-26 15:49:56,121,118,125,125,235
2024-05-26 15:49:56,120,118,123,124,235
2024-05-26 15:49:56,119,117,121,122,234
2024-05-26 15:49:56,119,117,122,123,235
2024-05-26 15:49:56,122,120,125,126,235
2024-05-26 15:49:56,123,122,126,127,234
2024-05-26 15:49:56,121,120,124,124,235
2024-05-26 15:49:56,119,117,121,121,234
2024-05-26 15:49:56,118,116,121,118,234
2024-05-26 15:49:56,118,117,121,119,234
2024-05-26 15:49:56,121,119,125,122,234
2024-05-26 15:49:56,119,116,123,119,234
2024-05-26 15:49:56,118,114,122,118,234
2024-05-26 15:49:56,120,116,124,119,235
2024-05-26 15:49:56,122,118,125,120,234
2024-05-26 15:49:56,120,114,123,117,234
2024-05-26 15:49:56,115,107,117,110,234
2024-05-26 15:49:56,114,106,116,107,234
2024-05-26 15:49:56,121,114,124,115,234
2024-05-26 15:49:56,126,121,131,121,235
2024-05-26 15:49:56,128,121,133,122,234
2024-05-26 15:49:56,126,115,129,118,234
2024-05-26 15:49:56,123,112,126,114,234
2024-05-26 15:49:56,127,118,130,118,234
2024-05-26 15:49:56,129,122,133,120,234
2024-05-26 15:49:56,129,122,134,120,234
2024-05-26 15:49:56,128,121,133,119,235
2024-05-26 15:49:56,129,123,133,120,235
2024-05-26 15:49:56,130,125,133,121,235
2024-05-26 15:49:56,130,126,133,120,234
2024-05-26 15:49:56,131,126,133,121,235
2024-05-26 15:49:56,133,127,135,122,234
2024-05-26 15:49:56,130,125,132,119,234
2024-05-26 15:49:56,131,127,134,119,234
2024-05-26 15:49:56,137,133,140,126,234
2024-05-26 15:49:56,142,139,146,132,234
2024-05-26 15:49:56,135,132,139,123,235
2024-05-26 15:49:56,126,123,128,112,234
2024-05-26 15:49:56,124,121,127,110,234
2024-05-26 15:49:56,130,128,133,119,235
2024-05-26 15:49:56,135,134,140,127,235
2024-05-26 15:49:56,139,137,144,130,234
2024-05-26 15:49:56,135,132,139,124,235
2024-05-26 15:49:56,128,126,130,115,235
2024-05-26 15:49:56,126,124,127,111,235
2024-05-26 15:49:56,127,126,127,110,234
2024-05-26 15:49:56,124,121,124,106,235
2024-05-26 15:49:56,121,116,120,101,232
2024-05-26 15:49:56,119,116,120,101,234
2024-05-26 15:49:56,122,121,124,105,234
2024-05-26 15:49:56,125,122,127,107,234
2024-05-26 15:49:56,123,120,126,105,235
2024-05-26 15:49:56,119,115,122,100,235
2024-05-26 15:49:56,114,111,117,95,234
2024-05-26 15:49:56,113,112,117,94,234
2024-05-26 15:49:56,118,117,122,101,235
2024-05-26 15:49:56,117,117,121,102,234
2024-05-26 15:49:56,114,114,117,99,234
2024-05-26 15:49:56,115,115,118,101,234
2024-05-26 15:49:56,118,120,123,107,234
2024-05-26 15:49:56,118,119,122,107,234
2024-05-26 15:49:56,116,116,118,103,234
2024-05-26 15:49:56,115,112,115,100,235
2024-05-26 15:49:56,114,111,114,101,235
2024-05-26 15:49:56,117,113,116,104,234
2024-05-26 15:49:56,116,113,115,104,235
2024-05-26 15:49:56,116,114,116,106,234
2024-05-26 15:49:56,117,114,116,107,235
2024-05-26 15:49:56,121,118,119,112,234
2024-05-26 15:49:56,124,121,123,119,235
2024-05-26 15:49:56,122,119,120,117,234
2024-05-26 15:49:56,116,112,112,111,234
2024-05-26 15:49:56,113,107,110,108,234
2024-05-26 15:49:56,116,111,114,111,234
2024-05-26 15:49:56,123,118,122,120,234
2024-05-26 15:49:56,124,119,123,121,234
2024-05-26 15:49:56,120,115,120,116,234
2024-05-26 15:49:56,115,110,116,110,234
2024-05-26 15:49:56,118,113,121,113,235
2024-05-26 15:49:56,123,117,126,119,234
2024-05-26 15:49:56,123,116,127,120,235
2024-05-26 15:49:56,119,113,123,116,235
2024-05-26 15:49:56,113,107,116,108,234
2024-05-26 15:49:56,114,107,116,108,234
2024-05-26 15:49:56,116,111,121,112,234
2024-05-26 15:49:56,120,115,124,116,234
2024-05-26 15:49:56,116,110,119,111,234
2024-05-26 15:49:56,114,110,118,110,234
2024-05-26 15:49:56,118,115,121,116,234
2024-05-26 15:49:56,122,117,126,121,234
2024-05-26 15:49:56,125,119,128,123,234
2024-05-26 15:49:56,119,114,120,116,234
2024-05-26 15:49:56,114,108,115,108,234
2024-05-26 15:49:56,113,108,118,110,234
2024-05-26 15:49:56,118,111,123,113,234
2024-05-26 15:49:56,120,114,124,115,234
2024-05-26 15:49:56,120,115,124,115,234
2024-05-26 15:49:56,124,119,128,120,234
2024-05-26 15:49:57,130,123,131,126,234
2024-05-26 15:49:57,130,123,129,126,235
2024-05-26 15:49:57,124,117,124,120,234
2024-05-26 15:49:57,115,109,115,111,234
2024-05-26 15:49:57,114,108,114,110,234
2024-05-26 15:49:57,116,110,117,113,235
2024-05-26 15:49:57,121,117,124,120,234
2024-05-26 15:49:57,125,122,128,124,234
2024-05-26 15:49:57,122,120,126,121,234
2024-05-26 15:49:57,121,120,123,119,234
2024-05-26 15:49:57,123,120,123,120,235
2024-05-26 15:49:57,126,123,126,124,234
2024-05-26 15:49:57,132,128,133,130,234
2024-05-26 15:49:57,133,129,134,132,235
2024-05-26 15:49:57,128,123,128,126,235
2024-05-26 15:49:57,125,120,125,121,234
2024-05-26 15:49:57,127,123,127,123,235
2024-05-26 15:49:57,126,123,125,122,234
2024-05-26 15:49:57,118,115,118,114,234
2024-05-26 15:49:57,111,107,110,105,234
2024-05-26 15:49:57,114,111,114,111,235
2024-05-26 15:49:57,120,115,121,117,235
2024-05-26 15:49:57,120,116,123,117,235
2024-05-26 15:49:57,114,111,117,109,234
2024-05-26 15:49:57,113,110,116,109,235
2024-05-26 15:49:57,120,117,123,116,234
2024-05-26 15:49:57,124,120,127,120,235
2024-05-26 15:49:57,121,117,124,117,234
2024-05-26 15:49:57,118,114,119,115,235
2024-05-26 15:49:57,121,117,121,117,234
2024-05-26 15:49:57,125,121,125,122,234
2024-05-26 15:49:57,129,126,128,126,234
2024-05-26 15:49:57,127,125,128,123,234
2024-05-26 15:49:57,125,123,128,121,234
2024-05-26 15:49:57,126,124,129,121,234
2024-05-26 15:49:57,127,126,130,124,234
2024-05-26 15:49:57,135,134,139,134,234
2024-05-26 15:49:57,149,149,153,149,234
2024-05-26 15:49:57,162,162,166,163,234
2024-05-26 15:49:57,167,169,169,169,234
2024-05-26 15:49:57,163,162,165,162,235
2024-05-26 15:49:57,147,142,149,141,234
2024-05-26 15:49:57,122,115,122,113,234
2024-05-26 15:49:57,104,97,102,93,235
2024-05-26 15:49:57,103,98,102,96,234
2024-05-26 15:49:57,112,107,112,108,234
2024-05-26 15:49:57,121,114,123,120,234
2024-05-26 15:49:57,126,118,126,124,235
2024-05-26 15:49:57,123,115,122,121,234
2024-05-26 15:49:57,121,113,120,119,234
2024-05-26 15:49:57,121,114,120,119,234
2024-05-26 15:49:57,121,116,120,121,234
2024-05-26 15:49:57,120,116,119,120,235
2024-05-26 15:49:57,115,111,113,115,235
2024-05-26 15:49:57,113,110,108,114,235
2024-05-26 15:49:57,114,111,111,115,234
2024-05-26 15:49:57,118,113,119,119,234
2024-05-26 15:49:57,119,114,122,122,234
2024-05-26 15:49:57,121,114,123,123,234
2024-05-26 15:49:57,119,113,121,121,234
2024-05-26 15:49:57,120,115,120,123,234
2024-05-26 15:49:57,124,119,124,130,235
2024-05-26 15:49:57,127,122,126,131,234
2024-05-26 15:49:57,125,119,124,130,234
2024-05-26 15:49:57,122,117,121,127,235
2024-05-26 15:49:57,121,116,120,127,234
2024-05-26 15:49:57,122,118,123,129,234
2024-05-26 15:49:57,123,119,124,131,234
2024-05-26 15:49:57,124,119,125,132,235
2024-05-26 15:49:57,126,121,124,134,234
2024-05-26 15:49:57,127,120,125,136,234
2024-05-26 15:49:57,124,119,124,134,235
2024-05-26 15:49:57,124,119,124,134,235
2024-05-26 15:49:57,122,119,122,132,234
2024-05-26 15:49:57,121,118,121,131,232
2024-05-26 15:49:57,124,122,123,136,234
2024-05-26 15:49:57,128,127,128,141,234
2024-05-26 15:49:57,129,129,128,143,234
2024-05-26 15:49:57,132,130,133,145,234
2024-05-26 15:49:57,129,127,132,142,234
2024-05-26 15:49:57,128,127,131,140,235
2024-05-26 15:49:57,131,130,133,143,234
2024-05-26 15:49:57,134,132,134,146,235
2024-05-26 15:49:57,133,130,131,144,234
2024-05-26 15:49:57,129,125,126,141,235
2024-05-26 15:49:57,129,125,126,142,234
2024-05-26 15:49:57,135,131,131,150,234
2024-05-26 15:49:57,140,136,137,155,234
2024-05-26 15:49:57,139,135,136,154,234
2024-05-26 15:49:57,133,130,130,145,234
2024-05-26 15:49:57,134,132,129,145,235
2024-05-26 15:49:57,136,132,130,146,235
2024-05-26 15:49:57,133,127,126,141,235
2024-05-26 15:49:57,129,123,123,137,234
2024-05-26 15:49:57,128,120,120,134,235
2024-05-26 15:49:57,127,120,121,133,235
2024-05-26 15:49:57,129,120,123,135,234
2024-05-26 15:49:57,128,120,124,134,234
2024-05-26 15:49:57,125,117,120,130,235
2024-05-26 15:49:57,124,115,119,129,234
2024-05-26 15:49:57,123,113,116,126,235
2024-05-26 15:49:57,119,110,111,122,234
2024-05-26 15:49:57,115,107,108,120,234
2024-05-26 15:49:57,116,109,108,121,234
2024-05-26 15:49:57,123,114,115,128,235
2024-05-26 15:49:57,127,117,120,132,234
2024-05-26 15:49:57,127,117,120,131,234
2024-05-26 15:49:57,122,113,114,126,234
2024-05-26 15:49:57,113,103,104,115,234
2024-05-26 15:49:57,106,96,97,107,235
2024-05-26 15:49:57,106,96,98,107,235
2024-05-26 15:49:57,113,103,106,115,234
2024-05-26 15:49:57,121,111,115,126,234
2024-05-26 15:49:57,125,115,118,129,234
2024-05-26 15:49:57,121,109,111,122,234
2024-05-26 15:49:57,119,108,109,119,234
2024-05-26 15:49:57,122,113,114,123,234
2024-05-26 15:49:57,125,116,116,126,234
2024-05-26 15:49:57,122,113,113,121,234
2024-05-26 15:49:57,119,109,108,116,234
2024-05-26 15:49:57,122,115,113,120,234
2024-05-26 15:49:57,128,121,119,126,234
2024-05-26 15:49:57,127,119,116,124,235
2024-05-26 15:49:57,121,113,109,117,234
2024-05-26 15:49:57,117,109,104,113,234
2024-05-26 15:49:57,115,105,102,110,234
2024-05-26 15:49:57,118,107,106,113,234
2024-05-26 15:49:57,123,113,113,121,235
2024-05-26 15:49:57,125,114,115,122,234
2024-05-26 15:49:57,124,114,114,120,234
2024-05-26 15:49:57,121,111,112,116,235
2024-05-26 15:49:57,122,112,112,117,234
2024-05-26 15:49:57,124,114,114,119,235
2024-05-26 15:49:57,122,110,113,116,234
2024-05-26 15:49:57,122,109,112,114,234
2024-05-26 15:49:57,123,111,114,115,235
2024-05-26 15:49:57,127,117,119,121,235
2024-05-26 15:49:57,130,119,122,125,235
2024-05-26 15:49:57,127,116,119,121,235
2024-05-26 15:49:57,119,108,111,111,234
2024-05-26 15:49:57,118,107,107,109,234
2024-05-26 15:49:57,120,108,110,111,234
2024-05-26 15:49:57,118,105,109,109,235
2024-05-26 15:49:57,117,102,106,107,234
2024-05-26 15:49:57,118,103,107,107,234
2024-05-26 15:49:57,122,108,113,113,234
2024-05-26 15:49:57,129,115,119,122,235
2024-05-26 15:49:57,135,121,127,130,234
2024-05-26 15:49:57,132,115,123,126,234
2024-05-26 15:49:57,126,109,116,118,234
2024-05-26 15:49:57,126,109,115,118,235
2024-05-26 15:49:57,129,113,120,124,235
2024-05-26 15:49:57,129,112,121,122,234
2024-05-26 15:49:57,127,109,119,119,235
2024-05-26 15:49:57,128,110,119,120,234
2024-05-26 15:49:57,130,112,119,121,234
2024-05-26 15:49:57,131,113,120,122,234
2024-05-26 15:49:57,131,112,120,122,235
2024-05-26 15:49:57,128,110,117,119,235
2024-05-26 15:49:57,128,110,116,117,235
2024-05-26 15:49:57,129,111,115,120,234
2024-05-26 15:49:57,127,111,113,119,235
2024-05-26 15:49:57,128,111,116,121,234
2024-05-26 15:49:57,131,112,119,123,234
2024-05-26 15:49:57,130,112,119,123,235
2024-05-26 15:49:57,133,115,120,125,234
2024-05-26 15:49:57,134,118,121,128,235
2024-05-26 15:49:57,133,117,119,127,234
2024-05-26 15:49:57,129,113,115,123,234
2024-05-26 15:49:57,126,111,111,119,235
2024-05-26 15:49:57,126,111,113,119,234
2024-05-26 15:49:57,127,112,115,120,234
2024-05-26 15:49:57,126,111,115,118,235
2024-05-26 15:49:57,127,111,114,117,234
2024-05-26 15:49:57,125,109,111,113,234
2024-05-26 15:49:57,127,112,113,114,235
2024-05-26 15:49:57,132,118,118,121,235
2024-05-26 15:49:57,133,119,118,122,235
2024-05-26 15:49:57,131,117,115,120,234
2024-05-26 15:49:57,129,115,112,117,235
2024-05-26 15:49:57,130,115,114,116,235
2024-05-26 15:49:57,135,120,120,121,234
2024-05-26 15:49:57,142,127,127,128,235
2024-05-26 15:49:57,142,126,126,126,234
2024-05-26 15:49:57,141,124,124,123,234
2024-05-26 15:49:57,139,123,123,123,234
2024-05-26 15:49:57,147,133,132,134,234
2024-05-26 15:49:57,158,143,147,146,234
2024-05-26 15:49:57,165,150,155,153,235
2024-05-26 15:49:57,166,152,154,155,234
2024-05-26 15:49:57,166,154,154,156,234
2024-05-26 15:49:57,163,151,149,153,234
2024-05-26 15:49:57,147,134,130,133,235
2024-05-26 15:49:57,123,110,104,106,234
2024-05-26 15:49:57,115,101,95,96,234
2024-05-26 15:49:57,115,103,98,99,234
2024-05-26 15:49:57,121,110,107,107,234
2024-05-26 15:49:57,127,116,113,114,235
2024-05-26 15:49:57,133,122,120,121,234
2024-05-26 15:49:57,136,125,123,124,232
2024-05-26 15:49:57,136,126,123,125,234
2024-05-26 15:49:57,133,124,121,122,234
2024-05-26 15:49:57,131,122,118,120,234
2024-05-26 15:49:57,126,117,114,115,235
2024-05-26 15:49:57,121,112,110,111,235
2024-05-26 15:49:57,122,113,111,113,234
2024-05-26 15:49:57,123,114,113,116,234
2024-05-26 15:49:57,126,117,115,119,234
2024-05-26 15:49:57,131,124,121,126,235
2024-05-26 15:49:57,132,124,122,127,235
2024-05-26 15:49:57,134,125,123,126,234
2024-05-26 15:49:57,134,125,124,127,234
2024-05-26 15:49:57,135,125,124,128,234
2024-05-26 15:49:57,132,123,120,124,234
2024-05-26 15:49:57,126,119,114,117,234
2024-05-26 15:49:57,126,120,114,117,234
2024-05-26 15:49:57,132,124,120,124,235
2024-05-26 15:49:57,139,129,127,132,234
2024-05-26 15:49:57,139,128,128,131,235
2024-05-26 15:49:57,136,124,126,127,235
2024-05-26 15:49:57,132,121,122,124,234
2024-05-26 15:49:57,133,122,123,124,235
2024-05-26 15:49:57,134,125,124,127,234
2024-05-26 15:49:57,131,122,120,124,234
2024-05-26 15:49:57,129,121,118,121,234
2024-05-26 15:49:57,131,125,122,124,234
2024-05-26 15:49:57,139,133,130,133,234
2024-05-26 15:49:57,144,138,137,138,234
2024-05-26 15:49:57,144,138,136,138,235
2024-05-26 15:49:57,136,131,127,130,234
2024-05-26 15:49:57,134,129,124,127,234
2024-05-26 15:49:57,136,132,127,130,234
2024-05-26 15:49:57,137,134,128,132,235
2024-05-26 15:49:57,137,134,129,132,234
2024-05-26 15:49:57,136,131,129,129,235
2024-05-26 15:49:57,137,134,129,131,234
2024-05-26 15:49:57,145,144,137,141,235
2024-05-26 15:49:57,149,148,142,146,234
2024-05-26 15:49:57,145,143,136,141,235
2024-05-26 15:49:57,138,133,127,130,234
2024-05-26 15:49:57,137,132,126,129,234
2024-05-26 15:49:57,138,135,128,131,234
2024-05-26 15:49:57,139,134,129,131,234
2024-05-26 15:49:57,133,130,124,125,234
2024-05-26 15:49:57,131,128,121,124,234
2024-05-26 15:49:57,132,129,123,124,235
2024-05-26 15:49:57,131,130,123,126,234
2024-05-26 15:49:57,134,132,127,130,235
2024-05-26 15:49:57,133,131,126,129,234
2024-05-26 15:49:57,129,127,122,124,235
2024-05-26 15:49:57,125,124,119,119,235
2024-05-26 15:49:58,123,123,119,118,234
2024-05-26 15:49:58,122,122,117,117,234
2024-05-26 15:49:58,116,116,111,111,234
2024-05-26 15:49:58,114,113,108,108,235
2024-05-26 15:49:58,118,118,113,113,235
2024-05-26 15:49:58,124,124,121,119,235
2024-05-26 15:49:58,124,123,120,119,234
2024-05-26 15:49:58,118,117,115,112,234
2024-05-26 15:49:58,115,115,110,108,234
2024-05-26 15:49:58,118,117,112,109,235
2024-05-26 15:49:58,121,119,119,113,234
2024-05-26 15:49:58,122,119,122,115,234
2024-05-26 15:49:58,121,119,121,114,235
2024-05-26 15:49:58,116,114,116,109,234
2024-05-26 15:49:58,115,112,113,107,234
2024-05-26 15:49:58,118,114,114,110,234
2024-05-26 15:49:58,117,113,113,110,234
2024-05-26 15:49:58,117,112,112,109,234
2024-05-26 15:49:58,121,117,116,113,234
2024-05-26 15:49:58,129,125,123,122,235
2024-05-26 15:49:58,132,126,124,123,234
2024-05-26 15:49:58,129,123,120,118,234
2024-05-26 15:49:58,124,120,114,111,235
2024-05-26 15:49:58,120,117,109,106,234
2024-05-26 15:49:58,119,114,110,105,235
2024-05-26 15:49:58,120,113,112,108,235
2024-05-26 15:49:58,119,112,111,109,234
2024-05-26 15:49:58,118,111,110,109,234
2024-05-26 15:49:58,120,113,112,110,234
2024-05-26 15:49:58,124,116,115,114,234
2024-05-26 15:49:58,128,121,119,119,234
2024-05-26 15:49:58,128,120,118,118,234
2024-05-26 15:49:58,124,116,111,113,234
2024-05-26 15:49:58,119,112,106,108,234
2024-05-26 15:49:58,119,111,108,109,234
2024-05-26 15:49:58,122,115,113,114,235
2024-05-26 15:49:58,126,118,118,118,234
2024-05-26 15:49:58,127,120,118,118,234
2024-05-26 15:49:58,125,117,115,115,235
2024-05-26 15:49:58,119,112,110,108,235
2024-05-26 15:49:58,118,112,110,107,234
2024-05-26 15:49:58,123,118,115,115,234
2024-05-26 15:49:58,124,119,117,118,235
2024-05-26 15:49:58,119,114,112,112,234
2024-05-26 15:49:58,117,112,112,109,234
2024-05-26 15:49:58,122,118,119,114,234
2024-05-26 15:49:58,128,125,125,121,234
2024-05-26 15:49:58,126,125,123,119,235
2024-05-26 15:49:58,123,121,118,113,234
2024-05-26 15:49:58,120,119,115,110,234
2024-05-26 15:49:58,117,115,113,108,234
2024-05-26 15:49:58,114,111,112,105,235
2024-05-26 15:49:58,113,111,112,104,235
2024-05-26 15:49:58,113,109,111,104,235
2024-05-26 15:49:58,117,112,116,110,234
2024-05-26 15:49:58,122,116,120,115,234
2024-05-26 15:49:58,124,118,122,117,234
2024-05-26 15:49:58,120,114,117,111,234
2024-05-26 15:49:58,115,112,113,106,234
2024-05-26 15:49:58,117,113,115,110,234
2024-05-26 15:49:58,120,115,119,113,234
2024-05-26 15:49:58,120,116,119,113,234
2024-05-26 15:49:58,121,117,121,114,234
2024-05-26 15:49:58,121,117,122,115,234
2024-05-26 15:49:58,121,116,121,114,234
2024-05-26 15:49:58,120,116,120,113,234
2024-05-26 15:49:58,119,113,117,111,234
2024-05-26 15:49:58,114,109,111,105,234
2024-05-26 15:49:58,114,107,110,103,235
2024-05-26 15:49:58,113,107,111,103,235
2024-05-26 15:49:58,112,106,110,102,235
2024-05-26 15:49:58,112,106,110,101,235
2024-05-26 15:49:58,123,117,122,114,235
2024-05-26 15:49:58,126,120,126,119,232
2024-05-26 15:49:58,124,118,124,115,235
2024-05-26 15:49:58,122,116,123,114,235
2024-05-26 15:49:58,120,115,121,113,235
2024-05-26 15:49:58,118,113,117,110,234
