Timestamp,Channel_1,Channel_2,Channel_3,Channel_4,Channel_5
2024-05-26 15:51:41,103.11026147707037,109.1570060331777,113.24730477222559,112.71672092727665,90.4194859033661
2024-05-26 15:51:41,104.56127501702755,109.71009025778885,114.03207996575854,113.10010042090434,92.0680731209524
2024-05-26 15:51:41,106.73013993841687,110.84727368964585,115.55731746278977,114.49656274115286,94.90901611231959
2024-05-26 15:51:41,109.49014995462504,112.38941763269736,117.67787423333607,116.71105416625194,98.41437837923111
2024-05-26 15:51:41,111.86850868155697,113.40981989727337,119.42549143341967,118.24716895368692,101.1834906836834
2024-05-26 15:51:41,112.49856488621857,112.9399036930627,119.33208912394191,117.47104346188516,101.55695000945852
2024-05-26 15:51:41,111.05846297484757,110.9496302150455,117.29686623948817,114.57385154870262,99.44533236135825
2024-05-26 15:51:41,108.91704383200032,108.65701874318688,114.88567217496052,111.61531817860565,96.78021899313241
2024-05-26 15:51:41,107.32335519336,107.02886789542877,113.23992919816706,110.03329484506273,94.82984675514659
2024-05-26 15:51:41,106.83511209601761,106.25883801409589,112.7085923116068,109.95478346453334,93.6888953888534
2024-05-26 15:51:41,108.07131157784686,106.81704188477049,113.80907167134352,111.62833528271078,94.49929107588555
2024-05-26 15:51:41,110.23677471776257,108.27191646020762,115.43066746925689,113.7992003231634,97.05899655552909
2024-05-26 15:51:41,111.3614897628167,108.51119025325188,115.09254916446096,113.89969939659517,98.41774773004275
2024-05-26 15:51:41,111.4071719203591,107.16278493868901,113.31601985131863,112.20339456698707,98.24173220260829
2024-05-26 15:51:41,112.50483537772588,106.62280780389082,113.35265978764957,111.53825223493861,99.65623118608518
2024-05-26 15:51:41,114.56741484238579,107.21457591250564,115.13365012382988,112.02719330478425,102.05876633556869
2024-05-26 15:51:41,115.61920696123612,107.18098138839784,115.94417779595423,111.69818891371632,102.39153803780185
2024-05-26 15:51:41,116.32095591174826,107.35690551944231,116.1980952778648,111.23434827651475,102.12462614736182
2024-05-26 15:51:41,117.89727787172103,108.7467968462201,117.16157216638081,111.61973236981844,103.37370886795696
2024-05-26 15:51:41,119.28803367782521,109.90697790526927,117.6782287080552,111.64482246153443,104.75311802744366
2024-05-26 15:51:41,119.63354900854401,109.80936115679975,117.36753335009986,110.72807372875656,105.11376172122928
2024-05-26 15:51:41,119.50266225837342,108.92885033320215,117.44907910210352,109.70571125210411,104.88614315301254
2024-05-26 15:51:41,119.67621821338551,108.22561765877168,118.48513002647502,109.56622438277542,104.9600201554261
2024-05-26 15:51:41,120.88598647456698,108.54900418500782,120.14288729239283,110.9402072106397,106.37774723388318
2024-05-26 15:51:41,122.56182218585558,109.57257691417433,121.20241205053546,112.7966783982584,108.46384893899459
2024-05-26 15:51:41,122.14059547169207,108.91051374997623,119.5794181428937,112.09314672597539,108.00179710232473
2024-05-26 15:51:41,118.58313582229412,105.18268546319332,114.84322876307361,107.95861327066758,103.0598666165067
2024-05-26 15:51:41,115.11965642003176,101.35349031004449,110.38512571405228,104.19275754120893,97.11148178869269
2024-05-26 15:51:41,115.84882396031351,101.73975604467026,110.68268003527014,105.19752010075715,96.13823179708187
2024-05-26 15:51:41,120.62801476958462,106.49457166574919,115.8739652929909,110.94283516353325,100.85747694801913
2024-05-26 15:51:41,125.82590065799508,111.8365325939026,121.44593962768214,117.27697355032863,106.26184576344178
2024-05-26 15:51:41,129.19914919710058,115.32670485275698,124.45793421030018,121.3377671778286,109.21704682643242
2024-05-26 15:51:41,130.7901184044153,116.85845194815728,125.31752507692951,122.91803366777108,110.30196963231671
2024-05-26 15:51:41,130.3054585047022,115.82619799685673,123.75811085099232,121.69061183253675,109.41740669293915
2024-05-26 15:51:41,127.488376702039,111.91803302200918,119.39381467033303,117.92997118450754,105.89095550958899
2024-05-26 15:51:41,124.22563600692938,107.62311151606097,114.8292633598177,114.38611439201031,102.23786646603008
2024-05-26 15:51:41,123.047596537699,106.148953960934,113.50322439312528,114.07760628520444,102.1467256643204
2024-05-26 15:51:41,124.63975463744569,108.14885181240413,115.93595885542008,117.11935951332526,105.83014177133438
2024-05-26 15:51:41,127.7780090525071,112.02030114137253,119.77722065330724,121.18558457426961,110.55056789160757
2024-05-26 15:51:41,129.81504803980724,114.46546212577019,121.86856412881603,122.795608819269,112.61804048116329
2024-05-26 15:51:41,128.88787231197657,112.98512591658216,120.74676238392627,119.95425147617195,109.96469773039804
2024-05-26 15:51:41,126.17489518398939,108.9370082661865,117.98977718674516,114.73423301066808,104.34084034923688
2024-05-26 15:51:41,124.08586708616943,105.43167431614955,116.25078639335388,110.59425339771475,99.23966064640985
2024-05-26 15:51:41,123.23343352931747,103.53133271165521,115.75584386357818,108.4094935424207,95.999155052719
2024-05-26 15:51:41,122.78680764619052,102.17847653612031,114.79176551300401,106.88673171722304,93.51227880241791
2024-05-26 15:51:41,123.18558080125325,101.89780744801774,113.76872632758953,106.3336640204518,92.44978223322248
2024-05-26 15:51:41,126.28813337123306,104.98929244395613,115.23631524944811,109.25281730008854,95.74983776786969
2024-05-26 15:51:41,132.50363638112506,111.39582421725002,120.32189721068693,116.22015319147124,104.14430854461465
2024-05-26 15:51:41,138.82976263703557,118.02564706367549,126.6823043076842,123.49483096476186,113.44257014009119
2024-05-26 15:51:41,141.74383274348006,121.97653210770312,130.73757209956034,127.10056642459686,118.54852365075996
2024-05-26 15:51:41,141.24794602055326,123.07314648433787,131.66977741476964,127.30351469915036,119.35657461788699
2024-05-26 15:51:41,139.58233671267539,122.78344290908832,130.85366087685466,126.44901852561004,118.48827483717372
2024-05-26 15:51:41,138.8591405222987,122.77285106842189,130.27338854860412,126.4004755253048,118.18854264405674
2024-05-26 15:51:41,141.31211982008256,125.34917630886962,132.78227248052045,129.48806111675992,121.39584326662036
2024-05-26 15:51:41,149.10344721427904,133.02826850159377,141.00836286299688,138.31263128711052,131.212864495838
2024-05-26 15:51:41,161.5479543105292,145.61631515537195,154.07539968630581,152.31203390953942,147.55094297511056
2024-05-26 15:51:41,173.58636300449103,158.0908433957362,166.09554821775907,165.5116309089141,164.48164671743373
2024-05-26 15:51:41,177.9703111937355,162.69820340988986,169.0519564879125,169.37615366887584,171.95321178179316
2024-05-26 15:51:41,169.77146265472183,154.40956124886347,158.32939004378147,158.8482444103549,162.87027942475453
2024-05-26 15:51:41,151.99739003937594,136.50313543735192,138.2141076467121,138.19457857318528,140.88788801088373
2024-05-26 15:51:41,134.58488691342825,118.69461487883414,119.57633141181734,119.14404244637662,118.52792930480881
2024-05-26 15:51:41,124.96686409474871,108.2534124902922,109.82500366919031,109.8825779228316,105.75825114270226
2024-05-26 15:51:41,122.87529259649654,105.4324340269884,108.12990691672529,109.14595804071558,102.88071364523552
2024-05-26 15:51:41,124.95154054722434,106.84054226481638,110.69854107434722,112.37754784039204,105.73300578566453
2024-05-26 15:51:41,129.1271903771249,109.7362003444395,115.16872065522116,117.02143855055972,111.64526275114714
2024-05-26 15:51:41,133.4481512487317,112.32041267793329,119.10707006619674,120.71827697226283,117.85932788676539
2024-05-26 15:51:41,136.138529208202,113.27629088928667,120.51819792855719,121.77253659307213,121.68794940775462
2024-05-26 15:51:41,137.36933054193943,112.92643791364165,120.12227927442487,121.30528946378821,123.33636059127276
2024-05-26 15:51:41,138.01362240339625,112.69184515752241,119.79404379700122,121.32727318446182,124.56263929056544
2024-05-26 15:51:41,137.8346004600775,112.3736281323609,119.15357057046894,121.33177246104907,124.89284448645003
2024-05-26 15:51:41,136.45279631516345,110.8097310719067,116.76727428312459,119.48629090071267,122.95587598854348
2024-05-26 15:51:41,135.4797064746722,109.27714769635791,114.52954902542466,117.25917715558641,120.85579007321348
2024-05-26 15:51:41,137.41561058676254,110.3527905156189,115.8711817085387,118.04610681391289,122.39186304393945
2024-05-26 15:51:41,142.11196049100724,114.1484897177768,120.35469738612898,121.85232653893166,127.80346094660375
2024-05-26 15:51:41,146.52456946577635,117.82769017353954,124.09260580117407,125.18427059000165,133.3664287971983
2024-05-26 15:51:41,147.72466195300035,118.56782532287316,124.18976227180414,125.11522747013503,135.20836905209882
2024-05-26 15:51:41,145.06498671017923,115.78081521367024,120.66087060213277,121.45450350192077,132.14841413262502
2024-05-26 15:51:41,140.93963142090763,111.64599425556048,116.3322241518744,116.90812932171134,127.16498510975066
2024-05-26 15:51:41,139.16004689187926,109.8591600909462,115.07652140961656,115.369159174988,125.29833890134259
2024-05-26 15:51:41,141.21488644909982,111.77436572732174,117.80528924826109,117.87477364440848,128.38246891280372
2024-05-26 15:51:41,144.77917634002137,115.12598782241405,121.51448040359335,121.44678656895417,133.49184551843038
2024-05-26 15:51:41,146.82667298708424,117.21763346911678,123.24492355493268,123.15549273896595,137.03890841444093
2024-05-26 15:51:41,147.06957921853027,117.61505502180873,122.66088406012182,122.80811624163238,138.28757501433833
2024-05-26 15:51:41,146.97567914538106,117.4692832315252,121.38640730912954,121.65390926911051,138.39616884191997
2024-05-26 15:51:41,147.73045065377258,117.95496975693337,121.38687836449431,121.14293928636982,139.1466058239328
2024-05-26 15:51:41,149.28392040165343,118.85696827649784,122.75636823033571,121.29448184327305,140.93576639761
2024-05-26 15:51:41,150.58836800061366,119.15975806874454,124.23749363543942,120.95959856918346,142.21287347021553
2024-05-26 15:51:41,151.5344960044417,119.25258621242125,125.30478079556092,120.56865679575067,143.0485145292157
2024-05-26 15:51:41,152.96711174982966,120.10000098212856,126.6888717972925,121.40355054273275,145.14506085033037
2024-05-26 15:51:41,154.8381620884405,121.48598406746623,128.7704127132752,123.13601762550833,148.29185183150258
2024-05-26 15:51:41,156.54518763168832,122.78163247250815,130.67648077507516,124.77082508295811,150.9630053855971
2024-05-26 15:51:41,158.00977648754463,123.85569752342948,131.89402541991552,126.01199770748822,153.06810201620567
2024-05-26 15:51:41,158.22160453398465,123.69267037981994,131.95380133874042,125.74974554874387,153.80102594305384
2024-05-26 15:51:41,156.6431604852425,121.8585655345777,131.20675711261805,123.74979118264487,152.33953158732382
2024-05-26 15:51:41,155.67314376581643,120.7870418804985,131.5702861513578,122.69602839270581,151.64691916187127
2024-05-26 15:51:41,156.54432452733317,121.4378655030622,133.13697889791547,123.3395502962255,153.54373641924946
2024-05-26 15:51:41,157.68266519373302,121.89721294735318,133.85669696928602,123.55867008294754,155.58844575840072
2024-05-26 15:51:41,159.1674291874122,122.44831957437626,133.93434262817996,123.59493520347897,157.31563689086343
2024-05-26 15:51:41,162.51230537335528,124.9418580617317,135.43693899906728,125.34257271694952,160.9375201471619
2024-05-26 15:51:41,166.90060142097636,128.73587432461395,138.0938989156292,128.43012658975076,166.1893857511013
2024-05-26 15:51:41,170.28024558480192,131.89767738201982,140.28905921299736,131.29845631054462,170.80159389644749
2024-05-26 15:51:41,172.25065528506508,133.67440504174277,141.48321107842517,133.11303616049887,173.5002152962621
2024-05-26 15:51:41,173.23753439788234,133.84099124483998,141.44245103500512,133.13551718977118,174.2289109672913
2024-05-26 15:51:41,173.25125846081625,132.30815595165646,139.88916621387887,131.38321409342907,173.26944492317034
2024-05-26 15:51:41,172.75345881879164,130.11627658910024,137.69437466885054,129.28975425557053,171.5498546158982
2024-05-26 15:51:41,171.71247150617398,127.76855470934774,135.36776467037845,127.14377745331184,169.32566034212928
2024-05-26 15:51:41,169.19675485188213,124.55983990671473,132.15566194847037,124.02764249588648,165.50786412488137
2024-05-26 15:51:41,166.39694586416917,121.43127359346269,128.89813507070664,121.27737905665688,161.6904391477048
2024-05-26 15:51:41,165.8665648260506,120.7190995097434,127.74927974840847,121.29392539348927,161.2866507833773
2024-05-26 15:51:41,167.86009995486444,122.76966800973959,128.89803684943723,124.05938107971983,164.46506929552217
2024-05-26 15:51:41,170.36971088308692,125.26496352998481,130.39418375945763,127.30173063888881,168.57461214313074
2024-05-26 15:51:41,171.67549620122085,126.18079975865695,130.99539286434964,128.8577183738641,171.02622181278954
2024-05-26 15:51:41,170.99314653746995,125.06330568705152,130.2559003637577,127.99444798149992,170.3470031588351
2024-05-26 15:51:41,167.6439694646971,121.51544833448364,127.15584096172012,124.50554456475936,165.89650555111774
2024-05-26 15:51:41,162.50416260660322,116.12051527353452,121.9777890540373,119.27569759162047,158.7566800386044
2024-05-26 15:51:41,158.4978176305533,111.79545779032692,117.5710844072757,115.39278999147407,152.72819561257432
2024-05-26 15:51:41,156.89955103140855,110.08574653578572,115.80120548461663,114.44229599487912,150.19865921165479
2024-05-26 15:51:41,155.85613881156516,109.06276089930444,114.9746303556887,114.20683490641251,148.93560749678693
2024-05-26 15:51:41,154.84259863687478,107.9539010817368,114.12238417056892,113.53056448677859,147.57550777386516
2024-05-26 15:51:41,155.50509715554222,108.14575805460385,114.59151063937283,113.96084022296199,147.57940725019955
2024-05-26 15:51:41,158.12438038191866,109.82013515602225,116.80000896201972,116.04434314279244,148.9900124904335
2024-05-26 15:51:41,161.10281997574887,111.9209885008287,119.46539343537387,118.42247576759051,150.2721688952731
2024-05-26 15:51:41,163.22646319448265,113.85037960444131,121.38969488967331,120.20568639644462,150.86436737728488
2024-05-26 15:51:41,164.31015643416774,115.37877376006887,122.37701731543605,121.57316484492979,150.9359255334016
2024-05-26 15:51:41,163.74968317674913,115.76574366831753,121.93276797694772,122.0617247719554,149.82208249172987
2024-05-26 15:51:41,161.95778286696586,115.08748948625058,120.36084395243734,121.34701719842455,147.92305103071013
2024-05-26 15:51:41,160.54045339336744,114.46781615525916,119.24508891626817,120.26664258924524,146.8350546294122
2024-05-26 15:51:41,160.217872761267,114.35961704606328,119.16073766833888,119.80249049501572,147.0183621340627
2024-05-26 15:51:41,160.55738690934956,114.26502634713344,119.35149889536466,119.85723575430777,147.7422789737066
2024-05-26 15:51:41,160.17258631845468,113.27000292089235,118.61705888367683,119.11316303397592,147.29529196239366
2024-05-26 15:51:41,158.0944630825431,110.97809972725967,116.32246829173447,116.62446926192598,144.34094768689712
2024-05-26 15:51:41,155.53450335755593,108.91250101499145,113.67110481009792,113.8267484828852,140.39470322188907
2024-05-26 15:51:41,154.95109360233226,109.55990618093651,112.62199081667777,113.59412954508875,138.51506259923298
2024-05-26 15:51:41,156.1038158080139,111.4244739557304,113.04942909445352,115.09107534491433,138.43074361782163
2024-05-26 15:51:41,156.80560442120026,111.10078125514072,114.03680642337397,115.30928712340699,137.78367498729227
2024-05-26 15:51:41,157.6017242466404,110.21671889845896,116.12764418183642,115.11839556770796,137.5720181538831
2024-05-26 15:51:41,159.76350739028075,111.34415714608593,119.16199293398128,116.41174834059487,139.34676138046692
2024-05-26 15:51:41,162.52145894016522,113.54499008941082,121.78847813283758,118.80255896214324,142.1848869675921
2024-05-26 15:51:41,164.2898759172822,115.10158275678808,122.91645938947288,120.61443114698993,144.11109754238788
2024-05-26 15:51:41,163.51028850159437,114.7963964091347,121.40652124558372,119.8451062709578,142.75508328730217
2024-05-26 15:51:41,160.37647924070018,112.51929187912397,117.59433242118963,116.43352994779417,138.20497158065604
2024-05-26 15:51:41,157.91094990290054,110.15702474986207,114.75255417377457,113.39065241906395,134.44497040147098
2024-05-26 15:51:41,159.01011719967101,110.00972190381307,115.51443601920727,113.78851899986024,134.96099695233548
2024-05-26 15:51:41,163.0091660822034,112.10274323953611,118.46794109244567,117.01000343943741,138.7189973384554
2024-05-26 15:51:41,166.93632424536122,114.61930478177312,120.62290392000747,120.07166875992307,142.50073370276988
2024-05-26 15:51:41,168.99330728099113,115.99662491553703,120.641091817608,121.29722156874718,144.3632149588732
2024-05-26 15:51:41,168.93153274474986,115.32064624649794,118.62377414553312,120.31371280249925,143.3672262537508
2024-05-26 15:51:41,166.52169270632393,112.36044322478288,114.85863538261282,116.81747004723819,139.03204379271776
2024-05-26 15:51:41,163.18335473123892,109.1544452060492,111.19231973413417,112.89619107681888,133.77857814736024
2024-05-26 15:51:41,162.46188828442538,109.03321721699987,110.72351156275921,112.71269044163054,132.29739022213835
2024-05-26 15:51:41,165.01659602741324,111.9837990321186,113.27103548626326,116.51126914671963,135.5000694901952
2024-05-26 15:51:41,167.60962615216263,114.57722537430033,115.53899019136112,120.12854462827491,139.5898739076482
2024-05-26 15:51:41,168.0052382252467,114.70604910839897,115.71180616829085,120.78683327606909,141.32360754310193
2024-05-26 15:51:41,166.52926019033163,113.25316744735952,114.52780986218636,119.35795225431703,140.58364149652223
2024-05-26 15:51:41,163.85331173602037,111.22408860398266,112.62663875930824,117.0455095430511,138.2487848766239
2024-05-26 15:51:41,160.6565106285461,108.82431551856895,110.20348952998299,114.37229303784609,134.76074510837708
2024-05-26 15:51:41,158.68251680770877,107.55563748524779,109.04897946309127,113.25144825524205,131.7936569223049
2024-05-26 15:51:41,159.49365189518562,108.95339853558019,110.66099407788643,115.02511831031715,131.9767555830051
2024-05-26 15:51:41,162.59487859091996,112.38474168733701,113.8756711486741,118.68085991527914,135.8646895476214
2024-05-26 15:51:41,166.0048718605711,115.71111938715723,117.04868823456901,122.20182927718199,140.97497450746982
2024-05-26 15:51:41,168.28872565467827,117.26509127201888,119.34633892761211,124.02093496001113,144.43072295450153
2024-05-26 15:51:41,169.35751006015303,117.41507578250602,120.29867639242421,124.03801174367248,145.6151465624377
2024-05-26 15:51:41,169.25430511897443,117.03366511058134,120.12240883070483,122.77480205845303,145.32914954202928
2024-05-26 15:51:41,168.0549317771533,116.39750836477204,119.43597013706614,120.88480809778878,144.22027262180882
2024-05-26 15:51:41,166.59917603711756,115.76289226013462,118.86295993875522,119.50727647832016,143.0188735381019
2024-05-26 15:51:41,165.59230890762788,115.33044802069541,118.64352894123792,119.09128366766609,142.5151858589884
2024-05-26 15:51:41,164.59004960983884,114.72341271401923,118.19427339704005,118.94290038445627,142.01154163729342
2024-05-26 15:51:41,163.09347382478762,113.44044808038505,117.3537458777575,118.5654775144994,140.46372962281976
2024-05-26 15:51:41,162.07707959609758,112.39978014050516,117.14764746253812,118.42062103073141,138.96319794382757
2024-05-26 15:51:41,162.4136094379057,112.70766215653933,118.02535164690116,118.99141595060661,138.7747299151551
2024-05-26 15:51:41,163.5303818722046,114.18773551513938,119.45784609219987,120.20488802726328,139.51783956740766
2024-05-26 15:51:41,164.07144526561686,115.20844483174584,120.07734185301662,120.82118141912726,139.5609919518094
2024-05-26 15:51:41,162.2161659226563,113.80338375654401,117.98237064235947,118.69859103864732,136.694853317134
2024-05-26 15:51:41,158.10188493087196,110.87016861537921,113.7718195625051,114.33229117610328,131.56655775588618
2024-05-26 15:51:41,154.97768363639415,109.30179784718142,110.84374655200008,111.33194376052421,128.43808405403075
2024-05-26 15:51:41,154.41490420034165,109.92309477195434,110.61382601186614,111.0413826667457,129.06039517768036
2024-05-26 15:51:41,154.65781493371523,111.2871094980092,111.28415071440497,111.50005874733519,130.85600593065888
2024-05-26 15:51:41,155.09816911193496,112.74038390186531,112.25918274359869,112.31084138661754,132.7945974232723
2024-05-26 15:51:41,156.80682104389396,114.92822962751781,114.43841948302241,114.27783435872445,135.9217681348407
2024-05-26 15:51:41,159.2522860595284,117.51160968443806,116.94664636478599,116.43030732781914,139.3808045920217
2024-05-26 15:51:41,160.87148665518137,119.27370564787728,117.74252945936385,117.50618711933095,141.65453720709937
2024-05-26 15:51:41,161.46901528921614,119.71583412168525,116.55205304560774,117.33667809764026,142.6607395162816
2024-05-26 15:51:41,161.63583745920627,119.09207704317984,114.8378153618301,116.54882116674555,142.7580340006063
2024-05-26 15:51:41,161.284074269671,117.80966390179856,113.1175829981134,115.73899300794282,141.96997079227182
2024-05-26 15:51:41,160.6864777023482,116.68396348103091,111.42297990577093,114.94748070140177,140.80425636836978
2024-05-26 15:51:41,161.31240978793033,116.76733573762712,111.07258420103415,114.70310075342209,140.93861912436364
2024-05-26 15:51:41,162.92698701708002,117.53960000101316,111.97117637958354,114.80499030911554,142.55957803457133
2024-05-26 15:51:41,163.89987966578067,117.73185111865435,112.03661942218483,114.17889054850302,143.75084916513438
2024-05-26 15:51:41,164.5195891004614,117.76550783188976,111.3692780624275,113.6600757173101,144.34777353837666
2024-05-26 15:51:41,165.77251431940388,118.5172914059683,111.4518546425291,114.4024836807799,145.58053594481015
2024-05-26 15:51:41,167.9920725888622,119.79749079352348,112.713556148585,116.18870394718687,148.22775927044083
2024-05-26 15:51:41,170.9927676460953,121.38902295728175,115.59407588042126,118.61775750541833,152.54193414058338
2024-05-26 15:51:41,174.62858062029514,123.94341271888725,120.45623065164506,121.88901481041776,158.44552642023032
2024-05-26 15:51:41,180.13594128366827,129.03936118918068,127.48048518236637,127.36580816104608,166.73928418432922
2024-05-26 15:51:41,188.9842883468636,137.9807931302038,137.00306290433102,136.29309526688468,178.6702335312285
2024-05-26 15:51:41,200.28297285577383,149.64527431398955,148.14872705593058,147.65357518880467,193.41361614237618
2024-05-26 15:51:41,210.76719119647134,160.70333706031604,157.96715359943357,158.0953696873122,207.1659224111113
2024-05-26 15:51:41,216.25679404307465,166.70887014563743,161.76459002664507,162.72696572442243,214.45874507686003
2024-05-26 15:51:41,212.70774700543973,163.34206890629196,155.75258581979193,157.25643293031314,210.1593508852431
2024-05-26 15:51:41,199.54805643992134,150.04358187952252,140.9114801401559,141.78115410207675,193.0062434909774
2024-05-26 15:51:41,181.57583517874997,131.92954215354428,122.8828118565719,121.88650298635551,168.57257084770333
2024-05-26 15:51:41,166.0707397637445,116.64925945203466,108.67231792300329,105.79956464450707,147.02456958060856
2024-05-26 15:51:41,158.26912643119763,109.29874925414175,102.83561500763548,98.94929949144972,135.82760402650626
2024-05-26 15:51:41,158.53115057306005,110.16204185637906,105.17725804872661,100.8866611069117,135.6188061362513
2024-05-26 15:51:41,163.55306284180122,115.75687902037076,111.34190726614173,107.31435668986,141.85489398143878
2024-05-26 15:51:41,168.20412207758974,120.93854822438193,115.6883647764354,112.42415870807513,147.18112405514412
2024-05-26 15:51:41,169.513951669409,123.03638813335324,116.28709998701669,113.37550033257432,147.44495814680113
2024-05-26 15:51:42,169.1579938445229,123.48616792668123,115.72262616006377,112.49843727605457,145.35287705959462
2024-05-26 15:51:42,168.78911737545866,123.86216336610308,115.65722244287262,111.91839707754063,143.78941117585072
2024-05-26 15:51:42,168.50130731612109,124.594974005244,115.85528454018826,112.10323176517416,142.93697778926182
2024-05-26 15:51:42,168.76283547440957,126.14308576717787,116.69723621778039,113.54560345151673,143.3360043588303
2024-05-26 15:51:42,169.15273871811868,127.71254663023063,117.60883076520248,114.88215783768811,144.15047818543647
2024-05-26 15:51:42,168.22166348740427,127.51863444791509,116.85712380260827,113.89373572387589,142.61445882218283
2024-05-26 15:51:42,166.2193967333541,125.95517979022496,114.96295931348988,111.36097392595487,138.49683995330997
2024-05-26 15:51:42,165.47298035062988,125.75470367775226,114.49265504012274,110.59461721474328,135.3095782477306
2024-05-26 15:51:42,167.5444657919648,128.27237733263254,116.61297749021195,113.26528893825918,136.00629025690137
2024-05-26 15:51:42,170.98497833309418,131.53801374372185,119.78201645989029,117.07523121275518,138.95697402783648
2024-05-26 15:51:42,172.6473672205602,132.50986338863876,121.36700693775863,118.30774183721151,139.58341620768203
2024-05-26 15:51:42,171.58280035247927,130.67286905667422,120.57061645637272,116.16836530860789,136.41014777381628
2024-05-26 15:51:42,169.8690489839327,128.349366617219,119.3484454763383,113.44301245237722,132.56894240589304
2024-05-26 15:51:42,169.21064328370827,127.52629828938373,119.39801078164818,112.55483279359532,130.5496558877544
2024-05-26 15:51:42,169.50559310025758,127.95240204061919,120.11532417912383,113.13973021748109,129.9969324044569
2024-05-26 15:51:42,171.16291470442107,129.25876650428887,121.56672498275861,115.01797821398387,131.3285578460995
2024-05-26 15:51:42,174.84765892085503,131.9209574400611,124.84547372789339,118.44754215271493,135.44312190222382
2024-05-26 15:51:42,179.13543643162657,134.7838098435292,128.77501931502252,121.8317528145792,140.40417144334612
2024-05-26 15:51:42,181.5921971914158,135.6231533336079,130.90939660221434,123.32384069766805,143.05563189510394
2024-05-26 15:51:42,181.22597954238213,134.2399461535655,130.05951248834748,122.53190333724288,142.11933710438538
2024-05-26 15:51:42,179.25158438760891,132.1110502135477,127.00737666475223,120.34965368593002,138.76444507622085
2024-05-26 15:51:42,178.08651341363097,130.98741430461058,124.54519001805295,118.80599338203479,136.34353821688023
2024-05-26 15:51:42,179.40645981172617,132.14748284217467,124.9008654921503,119.69694297864109,137.79130309482233
2024-05-26 15:51:42,182.0986129837963,134.48624549441115,126.67855337694132,121.75791128707019,141.48335391429362
2024-05-26 15:51:42,183.14213154346754,135.2318227020183,127.08261748468227,122.09337060925327,143.26911559567782
2024-05-26 15:51:42,182.13087514564393,133.99690845515835,126.17508159092391,120.74820060867248,142.46175460165205
2024-05-26 15:51:42,181.57332112935345,132.80169837330908,125.84404074779356,119.74592038163163,141.79723092961152
2024-05-26 15:51:42,182.30694609977306,132.2439162642075,126.44158161774322,119.54363691344338,142.39330179952248
2024-05-26 15:51:42,183.34335346746312,132.08566260835903,127.46352406269182,119.95522740627939,143.5979765435357
2024-05-26 15:51:42,185.40575598809633,133.77581067422406,130.06236347794697,122.09681711400935,146.77487221498706
2024-05-26 15:51:42,189.41004752755202,138.16013936809438,134.80598237360257,126.42681908371368,152.85500455494594
2024-05-26 15:51:42,193.84482302675184,143.15098136442649,139.47340487038628,131.2878845641799,159.24781701882853
2024-05-26 15:51:42,196.85093517882683,146.31691401642217,142.11744128561892,134.80550799320037,163.29905201028367
2024-05-26 15:51:42,197.4790928623894,146.71242517021545,142.09371622890967,135.6004168280473,164.0227095466883
2024-05-26 15:51:42,195.56565217168128,144.2792798664499,139.36074737075717,133.15833782202859,161.41782026578875
2024-05-26 15:51:42,191.92766283026464,139.9413446752761,134.99058548090866,128.60096407703813,156.5456382424045
2024-05-26 15:51:42,187.76952549412334,135.2467766645313,130.45114955380237,123.73520329225107,150.90651432871988
2024-05-26 15:51:42,184.72408543813157,132.18818696665488,127.76115103667551,120.68748925381071,146.80160291508386
2024-05-26 15:51:42,184.18668754388315,132.08820578678504,128.50835892953683,120.87564497165204,146.2559237892718
2024-05-26 15:51:42,185.99036109244113,134.23815982803941,131.40809237101575,123.2774637372705,148.86426664949425
2024-05-26 15:51:42,188.1279649794437,136.46801589971668,133.61604597642997,125.38937835892938,151.82712666876557
2024-05-26 15:51:42,188.46791134133653,136.5591250872636,133.53008497249053,125.2468156768943,152.30670841726177
2024-05-26 15:51:42,187.8081092276953,135.15738104445975,132.4815752926249,123.77209682674356,151.14495069015496
2024-05-26 15:51:42,188.57788047936822,134.93197037169307,133.00368714989747,123.72416448261235,151.57297319476592
2024-05-26 15:51:42,190.92965203070128,136.1609594838353,134.92381033893594,125.26179342147546,153.9024166295598
2024-05-26 15:51:42,192.99366770010747,137.05420752215747,136.27805009888422,126.26322352753452,155.49616986974527
2024-05-26 15:51:42,193.56696664493097,136.65810059797616,135.94522862524593,125.5626175818315,154.9793205422061
2024-05-26 15:51:42,192.32463155874308,134.91269786376668,133.59075518296572,123.29826813741295,152.59483594940482
2024-05-26 15:51:42,189.41777692644547,132.02053467856214,130.0110396821869,120.13865874239346,148.77977464101787
2024-05-26 15:51:42,185.6101463033341,128.72917962328805,126.32542585604475,116.7422115952886,144.58897221096527
2024-05-26 15:51:42,181.97635926732121,126.00050854576615,123.13512011846412,113.79827274890921,141.36088665352835
2024-05-26 15:51:42,179.9742285762885,124.65311354701936,121.46010023335677,112.57038268518832,140.44146795359842
2024-05-26 15:51:42,179.65041764650988,124.47779393570788,121.37965036341004,112.95350861153824,141.66942864232232
2024-05-26 15:51:42,179.21115645322612,123.99292448587846,121.44913511358087,112.91615997877248,142.41406703082856
2024-05-26 15:51:42,177.88976487845238,122.60554531074794,120.72019396995219,111.5175729513494,140.9610712706473
2024-05-26 15:51:42,176.1547841272162,120.95622721757198,119.2885202150131,109.42399430170349,137.88616611389696
2024-05-26 15:51:42,174.21734064085592,119.35716046711235,117.70080899295473,107.24479826602969,134.1632996247976
2024-05-26 15:51:42,172.57380627936737,118.43918406057537,116.83535345163303,105.75600362278423,131.17895031070256
2024-05-26 15:51:42,172.12514880683543,118.87895722592187,117.04041215185028,105.73940704572831,130.365200878966
2024-05-26 15:51:42,173.13271652705487,120.11330761850476,117.92683754193507,107.07096177494054,131.8368010602612
2024-05-26 15:51:42,175.4387278608206,121.99187052173042,119.77720177436257,109.9727135744796,135.42477401777893
2024-05-26 15:51:42,178.12932745848775,124.64849921655286,122.52541771402268,113.72085542808101,140.04010344462307
2024-05-26 15:51:42,179.37745897904907,126.69801842130042,124.45716527864641,115.89054931957583,142.73137546518487
2024-05-26 15:51:42,178.70991545399514,127.30814072616238,124.40111430395824,115.86548434800845,142.4902566119473
2024-05-26 15:51:42,176.72337465060374,126.7705484113002,122.4189109618674,114.53649248909299,140.3419136005693
2024-05-26 15:51:42,174.01309878405493,125.49723886459189,119.44250679995258,112.68243851625323,137.27368934399064
2024-05-26 15:51:42,171.9596663473335,124.56346422623767,117.35888126286062,111.35811644072434,135.1568077648444
2024-05-26 15:51:42,171.2139717807412,124.55041215058627,116.96407935159402,111.06694011501386,135.040654889525
2024-05-26 15:51:42,171.1343303046677,125.00643901913882,117.52659464863486,111.42539663412703,136.20072588354316
2024-05-26 15:51:42,171.11985618003482,125.6797605348819,118.66320866438966,112.23094721552873,137.73483572272448
2024-05-26 15:51:42,171.15802521387263,126.85347310209534,120.33324175405843,113.70237672644654,139.22915687407638
2024-05-26 15:51:42,171.07843602023058,127.6760401086006,121.14652907127105,114.81818606185878,139.79249481395533
2024-05-26 15:51:42,169.59909860235106,126.53243005364467,119.15204733219888,113.60048271265603,137.7585124259557
2024-05-26 15:51:42,167.66454135795522,124.98106580264596,116.09907036948316,111.62546960209198,134.6667815821698
2024-05-26 15:51:42,168.28103652053707,125.92902780750728,116.35202683471638,112.95610131008497,134.9791432390536
2024-05-26 15:51:42,170.59629694843127,128.215397962118,119.48775776595485,116.90355239138584,138.24941069649182
2024-05-26 15:51:42,172.26449638044602,129.88410732743276,122.36351436961314,120.39880263465714,140.99878211676196
2024-05-26 15:51:42,173.78165908508248,131.97897866692642,125.02582783802494,123.60562498443124,143.66496506026078
2024-05-26 15:51:42,174.91322028670143,134.08820601809296,127.22190380482176,126.00698271507419,145.81923239033654
2024-05-26 15:51:42,173.78414338374623,133.52282164368205,126.97958440831302,125.18481969772319,144.09468970885246
2024-05-26 15:51:42,170.4837269693403,130.12332681786208,124.13864040450638,121.3816914590349,138.09155378922364
2024-05-26 15:51:42,167.34251454617234,126.44423537082567,120.89725566091423,117.45441531523082,131.49180001212605
2024-05-26 15:51:42,166.42575490648267,124.67377613227875,119.84080110329741,115.76491535149323,128.01457087257003
2024-05-26 15:51:42,167.69036950953895,124.98338472154236,121.60846339889962,116.29681098212559,127.95629183570169
2024-05-26 15:51:42,169.32132193231183,126.01297011975888,124.38656029916646,117.10690939932262,129.07847135504775
2024-05-26 15:51:42,169.83443413297294,126.59082931894456,125.88439307015959,116.75129822885611,129.54743151573808
2024-05-26 15:51:42,169.21683540929513,126.5931116056703,125.6008273475829,115.67307629389143,129.2113400132888
2024-05-26 15:51:42,168.21476552636074,126.64202324854871,124.61523195982483,115.00605310331919,128.65907768289733
2024-05-26 15:51:42,167.38809822902553,126.73144708736733,123.49220938414928,114.95914145857998,127.97256419079675
2024-05-26 15:51:42,167.18081488282854,126.76375185475891,122.53885572511331,115.42426016053994,127.37556992826656
2024-05-26 15:51:42,168.24245531940215,127.92149787107643,122.98721565506467,116.8286772953484,128.25500598992784
2024-05-26 15:51:42,170.31478566822446,130.18355632667593,125.0187974669972,119.14218664476796,130.66915459826
2024-05-26 15:51:42,171.03300254442865,130.69208107233965,125.95488658638078,120.26271482722683,131.1913492279345
2024-05-26 15:51:42,168.61016250102614,127.71424972169012,123.71848003857123,118.36417972836122,127.45188973811734
2024-05-26 15:51:42,165.38667479322234,123.7799730259806,120.50227845711134,115.51870181857569,122.36340238984204
2024-05-26 15:51:42,164.55579220059101,121.85858515037197,119.35980353277427,114.80641930941641,119.77091409222237
2024-05-26 15:51:42,165.85327213900922,122.19667312424568,120.66222639704014,116.64569267293712,120.19544997624529
2024-05-26 15:51:42,168.0388837620473,124.3592837769167,123.74284910847996,119.8998819638938,122.85437310321774
2024-05-26 15:51:42,170.8179036109036,127.69859547029,127.5829275510568,123.67355856747494,126.87462865951817
2024-05-26 15:51:42,172.7005060359018,130.2217985097205,130.26191262659498,126.46885036010517,130.07702482381737
2024-05-26 15:51:42,171.69038560999294,129.83767619155728,129.94332263976966,126.04116473281574,129.86093524540462
2024-05-26 15:51:42,168.36700430490976,127.12727107240292,127.00480174055758,122.82117796843798,126.48667554905524
2024-05-26 15:51:42,165.46313862087783,124.7642061691387,124.63708834256632,120.09877030002244,123.38255572955916
2024-05-26 15:51:42,164.73285953231627,124.05944088201753,124.6441090242292,119.68741192156341,122.71095504670242
2024-05-26 15:51:42,165.14331664418367,124.07907991965672,125.18499127345467,120.29124773246309,122.80762091850524
2024-05-26 15:51:42,165.011872323331,123.73265879601848,124.92489744378345,120.42611058674676,122.03053856541281
2024-05-26 15:51:42,164.65871479881162,123.40545309626894,124.67884181893072,120.61936218848562,121.65759957749133
2024-05-26 15:51:42,164.56393365065003,123.31209934874852,124.5923377376357,121.25489010575167,122.27009989049569
2024-05-26 15:51:42,164.20280879230913,122.65890435484114,123.89552096814845,121.37263309290226,122.35844504917489
2024-05-26 15:51:42,163.24307640025287,121.37408679170905,122.54038962595779,120.68688743024289,121.4640691708493
2024-05-26 15:51:42,162.14984569267216,120.49999756741317,121.38382006685187,120.14787898091816,120.88624810294282
2024-05-26 15:51:42,161.853585617313,120.80151333329795,121.11533321076077,120.5017700176184,121.643717985041
2024-05-26 15:51:42,161.93674902497062,121.44823771925569,121.03682991652248,120.81474267817617,122.60759923461605
2024-05-26 15:51:42,161.33378356614398,121.42338426046243,120.32255621852316,120.0504090916682,122.3836397061469
2024-05-26 15:51:42,160.23686104325134,121.26228203402788,119.37393734935436,119.16616129652724,121.62702076290442
2024-05-26 15:51:42,159.62620546744003,121.73727778947804,118.96039422446498,119.06361131489743,121.38935550601204
2024-05-26 15:51:42,160.3676728395636,122.6761010089798,119.82719942787455,119.76844181108403,121.83399930834801
2024-05-26 15:51:42,162.18848710290823,123.76322467687125,121.80700997298314,121.24515065527,122.73797309544067
2024-05-26 15:51:42,163.40785050837587,124.42968694096254,123.09906201776822,122.07782483849434,123.29902005477369
2024-05-26 15:51:42,162.70217308436824,123.83953361380699,122.2149423423229,120.80260760624212,122.30256052997895
2024-05-26 15:51:42,160.81594905435725,122.43721434683889,119.79651285872635,118.6666803945633,120.22183145606171
2024-05-26 15:51:42,159.3663837992089,121.52297535543315,117.68134124383094,117.70675585512755,118.92238601952916
2024-05-26 15:51:42,159.27384086457724,121.64266173431534,117.18722827776581,118.5787237676719,119.4759669814843
2024-05-26 15:51:42,160.49961662078152,122.64902042010992,118.45023920786711,120.97272962779451,121.58057899628986
2024-05-26 15:51:42,163.1542107950486,125.2036786948687,121.6122133042613,124.83303908759711,125.09223248721767
2024-05-26 15:51:42,168.00647042406402,130.14825792919277,127.42833992241002,130.74455567935252,131.1933747371727
2024-05-26 15:51:42,173.79660943389592,135.83453882704484,134.58724045996874,137.32261685881244,138.8685071129332
2024-05-26 15:51:42,178.69005021385772,140.39264546272247,140.6845864842693,142.5301786414117,145.50576819212583
2024-05-26 15:51:42,183.24958089415045,144.77845586426497,145.795782685665,147.4091648877865,151.83097802352975
2024-05-26 15:51:42,188.01838573356375,149.6320692133462,150.69198849291115,153.01311385481733,159.04756268806378
2024-05-26 15:51:42,190.44655692305014,151.97179402907582,153.20699970819294,156.0781949342178,163.53299032343136
2024-05-26 15:51:42,186.1146047905441,147.3208409249081,148.87969385473886,151.24085559748093,158.98706626813308
2024-05-26 15:51:42,174.27586914522462,135.07793869409662,136.6005529387126,137.82213414299403,143.83087508507933
2024-05-26 15:51:42,159.80208666412506,120.3819347894952,121.89300224918637,121.9963409488232,124.5595855150575
2024-05-26 15:51:42,149.0979485478675,109.81456109511817,112.04873823113759,111.382498329417,110.25484904200134
2024-05-26 15:51:42,145.12269648871418,106.04095254592711,109.53693447720852,108.67953095357963,104.93106241539968
2024-05-26 15:51:42,146.2360634153743,107.43816676808638,111.97778326123859,111.3028914982491,106.53453734964549
2024-05-26 15:51:42,149.6771763217637,111.48232648833783,116.04036221061399,115.86379363500262,111.21811399450847
2024-05-26 15:51:42,153.0887536265271,115.4570172063387,119.26455195400428,119.71545608211612,115.37223735896127
2024-05-26 15:51:42,154.22375627380322,116.83086045505462,120.16595992780395,120.48611154815855,116.27856221966096
2024-05-26 15:51:42,152.77219539224487,115.69887955378904,118.57907496765446,118.13935916642998,113.87142171905062
2024-05-26 15:51:42,151.0650988829659,114.55829626398184,116.39364025254567,115.7890822670369,110.97839898875083
2024-05-26 15:51:42,151.63546050770137,115.58170199423236,116.35952087291926,116.46781665298312,111.00869425575729
2024-05-26 15:51:42,153.91512990197634,118.19264174323322,118.49077914418248,119.4605763419077,113.70167914798995
2024-05-26 15:51:42,155.4243976707083,120.1135410460331,120.15804492444032,121.64022514624008,115.69349672367112
2024-05-26 15:51:42,155.38674465460437,120.51061897129007,119.96453287385248,121.83891212062157,115.60277318515608
2024-05-26 15:51:42,154.84609574328314,120.43256430928778,119.10078763111731,121.40311805914422,114.8538868154194
2024-05-26 15:51:42,155.28293538574485,121.38256006213045,119.69234379913394,122.06082664262448,115.43178419630546
2024-05-26 15:51:42,156.7287717976184,123.34862114493123,121.73241128048991,123.83980049155687,117.56821912635547
2024-05-26 15:51:42,157.49716668972997,124.2594604041575,122.60981892245732,124.6375932429173,118.87322338421828
2024-05-26 15:51:42,156.5110079114762,122.90275228768705,120.94100151420375,123.09526894963157,117.5587074790105
2024-05-26 15:51:42,154.89115401915035,121.02585165889079,118.35752619865099,120.82221341230753,115.2632278490569
2024-05-26 15:51:42,154.20669547510258,120.06528979919723,116.88672847978253,119.80313351606651,114.01678908639985
2024-05-26 15:51:42,153.654006134121,118.84006532217846,116.42445131005375,119.0066077723693,112.87980878405713
2024-05-26 15:51:42,152.59932803271386,117.08799873868668,116.40584314590274,117.34234233411925,110.88626729295801
2024-05-26 15:51:42,152.87519157206046,116.89909839092456,117.8645483066453,117.08519152332363,110.54944426655707
2024-05-26 15:51:42,154.79574578416978,119.0683623648282,120.63862108399783,119.33055082025166,113.44840892726421
2024-05-26 15:51:42,156.29783412830832,121.61166671617764,122.4601371053767,121.64955062812663,116.75978694603286
2024-05-26 15:51:42,156.84357160998562,123.30476937938147,122.74104603154464,122.81531318121685,118.56531097378117
2024-05-26 15:51:42,157.26747118792676,125.10494688948361,122.96746272375215,124.03465717777367,119.87514059308968
2024-05-26 15:51:42,157.76607217917274,127.249121672733,123.57751298253675,125.79442234989287,121.32503126300243
2024-05-26 15:51:42,158.39576691716587,129.12698338669912,124.14106327763035,127.21293045315414,122.9725385748254
2024-05-26 15:51:42,159.07235993662624,130.4188970295434,124.77525051404912,127.7665622205198,124.54112136835191
2024-05-26 15:51:42,159.23434712787076,130.59023141065734,125.01006043307795,127.46167720535726,125.18459633251263
2024-05-26 15:51:42,158.44195118932004,129.95610054434516,124.63719488624324,126.82508387073361,125.08747800367787
2024-05-26 15:51:42,157.2345355486966,129.66902716803415,124.48120657874944,126.8417356532228,125.02285387960845
2024-05-26 15:51:42,156.49415735345434,129.7114014656386,124.57253405513696,127.19486348635104,124.64051091521148
2024-05-26 15:51:42,156.53891448651697,129.90644417381327,124.95662257504104,127.49868122579275,124.21394478563066
2024-05-26 15:51:42,157.49024259557834,130.77214165917715,125.90237063830301,128.33235730831183,124.82034131627316
2024-05-26 15:51:42,158.6538967930032,131.80224180927743,126.82587551204114,129.23179750526955,125.71007406792653
2024-05-26 15:51:42,159.4640412640041,132.60828343805957,127.80609856827235,129.9041840788832,125.92763239156912
2024-05-26 15:51:42,160.42615753624165,133.91786805537097,129.4689391062935,131.12262159908707,126.37634089288244
2024-05-26 15:51:42,161.45185051973468,135.86427469206515,131.13899154783985,132.73738049727186,127.80525647416485
2024-05-26 15:51:42,162.06225784162024,137.5850241896417,131.66679871850957,134.1017879655006,129.67423210500516
2024-05-26 15:51:42,162.5167358454554,138.48223252820065,131.38153297914215,135.22863965445524,131.5097407293111
2024-05-26 15:51:42,162.94581025173306,138.68213235089664,130.87712267992697,136.2741571121289,133.06673292010456
2024-05-26 15:51:42,162.45031568618123,137.79532746398482,129.6972261814705,136.74221129760568,133.2530405491263
2024-05-26 15:51:42,160.23720483066947,135.43604627126084,127.83742846590673,135.7868469581919,131.2780638672842
2024-05-26 15:51:42,157.30426878518546,132.57151162025465,125.9664611879678,133.66653963174477,128.36288907511968
2024-05-26 15:51:42,155.47069412644606,130.83648718451502,125.00350183360473,131.76579633101923,126.71270209787303
2024-05-26 15:51:42,155.34071310449517,131.2425421254602,125.70314978675991,131.32199763591936,127.34069600413574
2024-05-26 15:51:42,156.17902472864483,133.23968597318577,127.53787057614237,132.41478723614827,129.2932335011899
2024-05-26 15:51:42,156.91671750314208,135.310755577704,129.21438056250537,133.95346706281447,131.03186327987373
2024-05-26 15:51:42,156.42127119608438,135.89991294522065,129.11490049793161,134.22232833886545,130.9390598474371
2024-05-26 15:51:42,152.99616769158624,133.20866056515518,125.35556411487526,131.03458473137394,126.61463250712103
2024-05-26 15:51:42,146.16720924753062,126.65758764600892,118.18889134330482,124.05348447923701,117.38923345763823
2024-05-26 15:51:42,139.9312735454724,120.25590753602052,112.28226018345633,117.95048397393215,108.58749400693581
2024-05-26 15:51:42,139.07980830322805,119.13559663827057,112.27193850712678,117.80651571748555,107.18342494667068
2024-05-26 15:51:42,142.42152908562144,122.31785174578977,116.34301259984305,122.07940392176141,112.03325415968791
2024-05-26 15:51:42,145.13943891664235,125.05799889244068,119.22131747876445,125.23636435242183,116.24072708711034
2024-05-26 15:51:42,144.6403244257359,124.96044611815822,118.58996492265949,124.55133621662893,116.35404785820852
2024-05-26 15:51:42,141.86040393671652,122.8559585470577,115.87234984779536,121.60465663209399,113.94232664395777
2024-05-26 15:51:42,139.27146581343985,120.79380218377688,113.81575006732376,119.41970120678322,112.17402868034843
2024-05-26 15:51:42,138.17376051599936,120.0937133754217,113.63873942965594,119.38445713716496,112.52635419437162
2024-05-26 15:51:42,137.87121752953465,120.06320322497928,114.10421877371942,120.1871954291648,113.33560682206287
2024-05-26 15:51:42,136.6330652344164,118.76086184932049,113.43291956292464,119.5463382544734,112.0043821093102
2024-05-26 15:51:42,133.05595239785822,115.12997383081868,110.42117902356095,116.4118659779044,107.25365629677016
2024-05-26 15:51:42,127.6602122719026,109.97428032701242,105.46751740279868,111.88999504131358,99.96391456208835
2024-05-26 15:51:42,123.16031329831732,106.13797856533833,101.46850429373991,108.92096788339465,93.98059949545294
2024-05-26 15:51:42,122.08850457394664,106.05476113889765,101.29311597967116,109.78982113497601,93.05122780379322
2024-05-26 15:51:42,124.16359608308419,108.66449640247384,104.81997696126037,113.3932213631219,96.69239477969839
2024-05-26 15:51:42,126.8473502290524,111.39517875965245,109.11260120379136,116.84852817092181,101.40742996578877
2024-05-26 15:51:42,128.28383611593432,112.80525626031519,111.46574990221978,118.24575576026773,104.3748025907243
2024-05-26 15:51:42,128.53103197385397,112.68519536917992,111.69693350351055,117.55159679442787,105.12192605533154
2024-05-26 15:51:42,128.789803722967,112.38188476580757,111.56994887301678,116.70920297169368,105.61022453964925
2024-05-26 15:51:42,129.5055138881222,113.32074897981013,112.36362301910187,117.17255618281726,107.35554728177982
2024-05-26 15:51:42,129.71861936234208,115.19863073032423,113.23642056516229,118.26836812267703,109.32648699267281
2024-05-26 15:51:42,128.41530691092078,116.27956693821457,112.71022234722473,118.16133983538347,109.85539152771912
2024-05-26 15:51:42,126.06452411883176,115.62258053947448,111.40432031281671,116.3227425548268,109.04413567043034
2024-05-26 15:51:42,124.23336656394822,114.65784166312082,111.20811265199352,114.54729979030573,108.91450761155964
2024-05-26 15:51:42,123.49275743646578,114.76285298083015,112.26457837554534,114.28427873846229,110.41499604923742
2024-05-26 15:51:42,123.50314642632152,115.66631516896808,113.48896101087075,115.16328898746464,112.6463729203238
2024-05-26 15:51:42,124.09264522095225,116.80318804017936,114.66786151046594,116.27509961524264,114.72579305107425
2024-05-26 15:51:42,125.16627474435619,117.8318279993259,115.82840676676418,117.1847034149663,116.27905185552511
2024-05-26 15:51:42,126.02172690597355,118.28415029918538,115.99792183356041,117.59373247182135,116.95041585254233
2024-05-26 15:51:42,126.00047496404959,117.87498568078087,114.6212590455216,117.36422322581761,116.61524557952407
2024-05-26 15:51:42,125.35243858061477,116.5604270695062,112.37753729492482,116.47600631085359,115.71475571190557
2024-05-26 15:51:42,123.5841437744902,113.779091235158,109.18930048329958,114.0108729052039,113.46122237293551
2024-05-26 15:51:42,120.27044229248806,109.69967623708227,105.04221713796687,109.88389690518119,109.04597288541382
2024-05-26 15:51:42,118.03164354810211,107.29681169652233,102.71612710981324,107.46267981187736,105.59300621974911
2024-05-26 15:51:42,120.03500529272378,109.2413215921973,104.93818838158731,109.9245436762541,107.31840516764703
2024-05-26 15:51:42,125.39915817425634,114.05567892672835,110.21363440887197,115.5529510695303,113.36950459696726
2024-05-26 15:51:42,130.6574513244548,118.81457582730211,115.24463673133393,120.97646316562579,119.62307572353129
2024-05-26 15:51:42,134.38089002873102,122.54696372218305,118.77746873236443,125.17591410731919,124.47247008270037
2024-05-26 15:51:42,136.64300530292223,124.32265816858242,120.5969404800363,127.36109665032926,127.705281614852
2024-05-26 15:51:42,136.89390716074737,123.11550380999127,120.22780770266198,126.43052595070785,128.2138388730475
2024-05-26 15:51:42,135.49809352892396,120.43376862935769,118.15950634886313,123.5590313727713,126.36974734144269
2024-05-26 15:51:42,133.56636758118583,118.00555959492318,115.60455909422227,120.83932064520602,123.59508705818332
2024-05-26 15:51:42,131.4301247022946,115.95647484895996,113.08485389946006,118.90316438593129,120.7370839798304
2024-05-26 15:51:42,128.921512413479,113.95789987120986,110.32475829306496,117.28878026088232,117.95977857024339
2024-05-26 15:51:42,125.95043468425838,111.56008812203142,107.28307804190393,115.33543987375681,114.85094355194137
2024-05-26 15:51:42,123.9220221643556,109.82353555863246,106.05980606883755,114.35657426127871,113.00762869512832
2024-05-26 15:51:42,125.00132447223194,111.11352715245502,108.98672248402336,116.95775406415473,115.27118878549473
2024-05-26 15:51:42,128.51074121507145,115.26749055334176,114.46894425012644,122.3208740385972,120.73462089717657
2024-05-26 15:51:42,131.44508064882942,119.01093199093262,118.28363917401951,126.32793062374014,125.06817717953936
2024-05-26 15:51:42,132.33921736028154,119.96239130904024,118.36958683029917,126.82278757112013,125.76664179688264
2024-05-26 15:51:42,132.20312539509496,118.84562807588405,116.368000031347,125.23470515908048,124.1251161292748
2024-05-26 15:51:42,131.70902766576563,117.23151544344555,114.28941472222962,123.23840100721168,121.84805661468083
2024-05-26 15:51:42,130.4158231244137,115.52228025310171,112.69829076900135,121.52833358785986,119.10730374400548
2024-05-26 15:51:42,128.87419739654578,114.16184980960026,112.03274157889872,120.84186261319819,116.75004435811297
2024-05-26 15:51:42,127.57777207355167,113.73497566467711,112.29347990041086,121.19118194272647,115.8023460783003
2024-05-26 15:51:42,126.66319035646899,114.21548211166156,113.11612850990065,121.98453084031857,116.02835616230932
2024-05-26 15:51:42,126.98781582051159,115.50969285896345,114.28639585633229,123.17316915659399,116.89176526625542
2024-05-26 15:51:42,128.5048433486238,117.14862905508085,115.16612335225166,124.72775606847873,117.95173751818334
2024-05-26 15:51:42,130.06917195844693,118.08055025346269,115.11624467145525,126.00268444515339,118.41075085633645
2024-05-26 15:51:42,131.1205877429997,118.05712783649169,114.53017910776003,126.49523553089438,117.8180795165813
2024-05-26 15:51:42,131.9896360654407,118.06725661525023,114.51810460867914,126.75099007268571,117.06959019712443
2024-05-26 15:51:42,132.2508666977329,118.07938888303157,114.61306949693314,126.8674021698135,116.49237714631556
2024-05-26 15:51:42,130.8443345980543,116.976518914124,113.2910660952479,125.70171576667245,114.76553906708423
2024-05-26 15:51:42,128.3325918369909,115.07852171858596,110.93267093641326,123.31964320350399,111.6174354982851
2024-05-26 15:51:43,126.03545253966801,113.44992510985496,108.71641227069676,121.03767004412049,108.48081266388313
2024-05-26 15:51:43,124.5280646364845,112.68612695300826,107.51704376649289,119.63671998923522,106.84352093730213
2024-05-26 15:51:43,124.18060092676106,112.96510874303567,108.20953838702779,119.33762900849078,107.4890477167305
2024-05-26 15:51:43,124.7404354047511,113.62768898264622,110.41157455991045,119.75058095172707,109.36097567690872
2024-05-26 15:51:43,125.23515274921694,114.11212268050049,113.03409957703391,120.25269616052022,110.75489563216959
2024-05-26 15:51:43,125.07355204226093,114.3435570451414,114.94262833442598,120.32134000442436,111.14975691644597
2024-05-26 15:51:43,124.29172782963616,114.01615132519854,115.3878650001751,119.51986993543194,110.62305213768984
2024-05-26 15:51:43,123.37898867842,113.2238554135195,115.08641177851138,118.20879936641595,109.74636379411564
2024-05-26 15:51:43,123.3309579499229,113.34521126488107,115.58812156268925,117.78887416873445,110.0426437332757
2024-05-26 15:51:43,124.81143921791332,115.42621879937734,117.67219515803987,119.52096227698861,112.8068963612912
2024-05-26 15:51:43,127.13175939532769,118.43795775292119,120.31458047786504,122.55666605485575,117.04692345702153
2024-05-26 15:51:43,128.56995826891225,120.45173866423009,121.40637637391929,124.27906216755851,119.8666006347476
2024-05-26 15:51:43,128.56331866453306,121.05194949700275,120.95039489444176,123.99957040931614,120.32189515165868
2024-05-26 15:51:43,129.4407953338675,122.51193317162482,122.38062634142929,124.83670479042408,122.08256542327112
2024-05-26 15:51:43,133.34104621713706,126.78750019572459,127.92694027057598,129.43450478511156,128.49743112415922
2024-05-26 15:51:43,139.29592518345075,132.98689029324765,135.88183777587236,136.61198659249408,138.27779044037433
2024-05-26 15:51:43,144.91122545411295,139.05566858237836,143.3765665501138,143.71859020466925,148.044893744361
2024-05-26 15:51:43,147.78217909350803,142.85952514860287,147.47489077472605,147.88502265638678,154.13358247236545
2024-05-26 15:51:43,144.5725184198042,140.6854576593275,144.03405292836482,144.4993939190207,151.28740937370978
2024-05-26 15:51:43,133.28003597824144,129.93663943109374,131.46012301227012,131.10713872198323,136.49636074663505
2024-05-26 15:51:43,118.16785768521834,115.19248266532442,115.74520500026716,113.79151737335565,116.30133903982599
2024-05-26 15:51:43,106.94314861584748,104.32566138950376,105.21227806253117,102.29472358692604,101.90235121632175
2024-05-26 15:51:43,102.99759369465679,100.39198652280987,102.66725317172083,100.39680838192245,97.98043088864931
2024-05-26 15:51:43,104.60839546924764,102.08494859223099,106.16112266623189,105.4152488823922,102.0038193286928
2024-05-26 15:51:43,108.69602074256191,106.76205836670823,111.99521176705132,112.7014042354788,109.37453592423253
2024-05-26 15:51:43,112.02678978340829,111.08924524128598,116.25577045201473,118.09832713390315,115.37282727471748
2024-05-26 15:51:43,112.29539601850814,112.87523475059807,117.10831807537805,119.69076458466392,117.18347981630494
2024-05-26 15:51:43,109.66590381756058,112.22951933872511,115.63539249016907,118.4263255672696,115.70529149706475
2024-05-26 15:51:43,106.48425093813597,110.75279260058393,114.29849292916077,116.87838345976925,114.21910022079209
2024-05-26 15:51:43,104.77727522134253,110.05154085915395,114.45074389258846,116.9088263080088,114.60076310556943
2024-05-26 15:51:43,104.95156697025932,110.40615682043571,115.6514840483769,118.19309827865844,116.18071820635105
2024-05-26 15:51:43,106.21869458939044,110.91939602528515,116.79130449724104,119.48875020407317,117.66152499983994
2024-05-26 15:51:43,107.06437028042025,110.82175292803802,116.91380700520061,119.90371369133726,117.6925277998583
2024-05-26 15:51:43,107.98197850360575,111.31816926277011,116.92018095199084,120.38396472100476,117.74910162275586
2024-05-26 15:51:43,110.6060030314762,113.6973570968275,118.66788070347198,122.55400640884868,120.81066475829536
2024-05-26 15:51:43,113.69889561105826,115.90908030886268,121.31659086239172,125.03818854530857,125.02456977261019
2024-05-26 15:51:43,114.81092648824986,115.42114131880405,122.30868151321805,124.98129491099643,126.26779549481246
2024-05-26 15:51:43,113.81397580490183,112.9985762468778,121.10330805498772,122.2048321455623,124.08433912753486
2024-05-26 15:51:43,112.61661437747725,111.05235575107106,119.39006793978642,119.114767670348,120.99436694812974
2024-05-26 15:51:43,113.25679826718344,111.46132539484053,119.11551933762584,118.24411499209276,119.99336177600223
2024-05-26 15:51:43,115.70506906542364,113.91238625867928,120.12066750392266,119.93136744821606,121.80115012842404
2024-05-26 15:51:43,118.21449304017824,116.13677534725079,121.20836356809467,121.96877827129602,124.48100296187883
2024-05-26 15:51:43,120.36216621869607,117.24479599843568,122.9130123328857,123.02809324643533,127.1060717967887
2024-05-26 15:51:43,122.28071505572997,117.70917911627618,124.9105165715305,123.38454150804995,129.35125574986284
2024-05-26 15:51:43,123.30122486390928,117.79117813258839,125.85997569418603,122.99385313000971,130.2265394400876
2024-05-26 15:51:43,123.7815821392754,118.04935211355269,126.00941464372394,122.21070624741283,130.16391019919115
2024-05-26 15:51:43,124.32238530357311,118.74406393620595,126.0144611371206,121.76048631660501,129.76749901525218
2024-05-26 15:51:43,124.28596252673358,119.23144340298299,125.9749597435285,121.69347073205068,128.80079791011673
2024-05-26 15:51:43,123.58608757347673,119.2329758554686,125.66309623836034,121.82704998349817,127.77508872559538
2024-05-26 15:51:43,122.9532094393532,119.06124290259324,125.09713782490692,122.0507378502331,127.13194200179743
2024-05-26 15:51:43,122.45460464816746,118.92330334566728,124.53846707585222,122.1332863433624,126.56457792652793
2024-05-26 15:51:43,122.41466030423985,119.56950556376839,124.40584346978932,122.65172074139048,126.72513678848142
2024-05-26 15:51:43,124.07290047502842,122.06377841937373,125.59962464915125,124.91805132068706,129.125192008453
2024-05-26 15:51:43,126.92330705660945,125.47427061905604,127.83002674598458,128.19335565617973,132.86256295845595
2024-05-26 15:51:43,128.48691642615614,127.68625162896558,129.5294002802778,130.2756955580499,135.3484599906991
2024-05-26 15:51:43,127.88056770302438,128.08480952784905,129.98817150248937,130.60974282713732,135.52945919625674
2024-05-26 15:51:43,126.5658932544399,127.39760992362244,129.3906028754186,129.97140344757423,134.07067297355044
2024-05-26 15:51:43,126.73935737796222,127.43068643037911,129.1083770426915,130.05952110941243,133.3883646336912
2024-05-26 15:51:43,129.32642644007686,129.66064579227827,130.7206140104363,132.31219854991144,135.73936951594317
2024-05-26 15:51:43,132.56746069245088,132.65995415105576,133.24506983747187,135.25362793725037,139.64476102147083
2024-05-26 15:51:43,134.32519873606287,134.24706804776181,134.73787051603847,136.41924427829727,141.86772105939986
2024-05-26 15:51:43,134.38298097379146,134.45223112440095,134.8911190485696,135.68326969891285,141.66753333720393
2024-05-26 15:51:43,133.40392373993797,134.0060465432923,133.99646473243808,134.2111533586653,139.96134210316347
2024-05-26 15:51:43,132.07681613385648,133.21164343430834,132.3444375106177,132.71667945595894,137.53306191213224
2024-05-26 15:51:43,131.009711479261,132.28293071793647,130.67366193333493,131.36497268402377,135.04203964573398
2024-05-26 15:51:43,130.71091614232992,131.8510511875044,130.0482906212044,130.65700510016578,133.60353844352642
2024-05-26 15:51:43,131.02499221060498,132.37835069328338,130.8178041927541,130.83845948912415,133.685289173157
2024-05-26 15:51:43,130.9807794886471,132.8095038494379,131.67790485200393,130.76644732536442,133.76130040992197
2024-05-26 15:51:43,129.5919239140829,131.63806746486844,130.88406790766535,129.26000744826592,132.13702001046136
2024-05-26 15:51:43,126.66972071896214,129.0009794004248,128.32983224488646,126.44098572708496,128.8618300296189
2024-05-26 15:51:43,124.24134364532753,127.2329376755892,126.45143044237791,124.60161682170099,126.350460486242
2024-05-26 15:51:43,124.08567298900196,127.96012145486438,126.81141941096608,125.47923265199819,126.86697758773464
2024-05-26 15:51:43,124.35671973859596,129.0133525675921,127.10427770022125,126.71305265721512,128.25401615199053
2024-05-26 15:51:43,122.96852755762961,127.76010336321878,125.05076434383608,125.36805866839953,126.9503560471515
2024-05-26 15:51:43,120.66804691503127,125.05972525982475,121.83657529059401,122.18825929343758,123.49825325376132
2024-05-26 15:51:43,118.84176408144205,122.92312132392642,119.59332463201683,119.631962741118,120.55967906832682
2024-05-26 15:51:43,117.96345557856793,121.80147152432586,118.57849493467877,118.41877308691414,119.22507277468006
2024-05-26 15:51:43,117.68944332280418,121.19190694881881,117.95092952153476,117.71116214625188,118.94930302783848
2024-05-26 15:51:43,117.12845191184839,120.65921426354728,117.32787169157307,116.73507320830106,118.64806409119711
2024-05-26 15:51:43,115.74692433649736,119.74601942832462,116.74407735078692,114.9808202331903,117.17220422337368
2024-05-26 15:51:43,113.79492602875544,118.0288817920793,116.04543081248515,112.2822234106297,114.18622493298639
2024-05-26 15:51:43,111.58968987016372,115.61169761862506,114.67302593813505,109.14808430488735,110.29155633103534
2024-05-26 15:51:43,109.22742358536041,113.29113186100953,112.09412416134374,106.2328861848212,106.42656830244552
2024-05-26 15:51:43,107.37368306346335,111.86877219493334,109.04161468305148,104.16248669234744,103.91287452057227
2024-05-26 15:51:43,107.11285236518239,111.19202789723892,107.85087246509099,103.65464976856944,103.75517970972024
2024-05-26 15:51:43,108.67457180924835,110.96205229240842,109.92300425216533,104.72730047153703,105.89028709640274
2024-05-26 15:51:43,110.9847527162625,111.36308220409738,113.73790385213937,106.55897550011534,109.27607537114025
2024-05-26 15:51:43,112.57982007668335,111.7995447486154,116.65510116867422,107.80510263614177,112.20322726394565
2024-05-26 15:51:43,112.53762915491605,111.09748360592066,117.05470288155738,107.18247888418026,112.89736723882332
2024-05-26 15:51:43,111.0923088295588,109.5391310498707,115.34740946561325,105.12744709077838,110.93641312272547
2024-05-26 15:51:43,109.92608487143967,108.8576651469776,113.86612060739776,103.94315134169281,108.64133798154695
2024-05-26 15:51:43,110.77446185310131,110.12522019080072,114.66471212561312,105.24053538457343,109.07420734611877
2024-05-26 15:51:43,113.06379751907566,112.30726142040639,117.34815299502095,107.94872632969377,111.67121435961312
2024-05-26 15:51:43,114.60171739534594,113.31012450229049,119.6425745830704,109.60855755196718,113.37398506805583
2024-05-26 15:51:43,114.32074239625545,112.29199581072942,119.634379563543,108.98421968133748,112.81094758811018
2024-05-26 15:51:43,112.4341506765853,109.61932336055969,116.92743348009465,106.22695317314077,109.89243708761322
2024-05-26 15:51:43,109.9101368103193,106.2548349621672,113.11618539028221,102.63463298240649,105.66667497735135
2024-05-26 15:51:43,108.33959646050376,103.98095435045084,111.24595157867056,100.71454092807276,102.72158881814539
2024-05-26 15:51:43,109.0110346063515,104.31232616662004,112.84471654331945,101.92203586823005,102.5711822761512
2024-05-26 15:51:43,111.76910268877877,107.04333052349371,116.44661995283701,105.34795248068453,104.75046111527718
2024-05-26 15:51:43,114.78687114193396,110.2195028272604,119.72035429383959,108.84709633238037,107.66939675433883
2024-05-26 15:51:43,116.53400142801709,112.42318349414623,121.70163115020675,110.97663639156013,109.69383332342302
2024-05-26 15:51:43,116.90875882374525,113.55086979061767,122.47627564436621,111.55603937676443,110.06846798620276
2024-05-26 15:51:43,116.30415774421562,113.46140319662693,122.12013812477566,110.79975254707675,108.88866643870166
2024-05-26 15:51:43,115.3010316457197,112.67204945315049,121.20445223385204,109.56555663671911,107.04787051058423
2024-05-26 15:51:43,114.81874069200676,112.39547352752857,120.65418326974017,109.07716085369786,105.68773522145034
2024-05-26 15:51:43,114.97125821435641,112.81726994854205,120.55034808960616,109.51697472458545,105.06776838363655
2024-05-26 15:51:43,114.51167858260749,112.93378447026045,120.2000059971856,109.77774068474474,103.91871221351279
2024-05-26 15:51:43,112.77256502185925,112.00847821880441,119.32145253614591,108.89683288145213,101.35662718532511
2024-05-26 15:51:43,110.27401196550426,110.34819349062307,118.19868184281206,107.28470831675253,97.99868144472423
2024-05-26 15:51:43,107.8744159244601,108.92287971582059,117.27288123791882,105.97424748625527,94.87263420958928
2024-05-26 15:51:43,106.56907170556003,108.67422415092614,116.85898775869805,105.47449164596577,93.2440910083243
2024-05-26 15:51:43,106.64980900293877,109.5774847384516,116.85302616846191,105.9404388079797,93.25398996194929
2024-05-26 15:51:43,107.81945320904609,110.98594402606307,117.18156440463157,107.31906091952172,93.95954275023901
2024-05-26 15:51:43,109.64781967088732,112.64670182926467,117.8488956735321,109.25329363840274,95.13862745626743
2024-05-26 15:51:43,111.35163003731658,114.22399477048589,118.53736268080945,111.20904530408626,96.57727265199092
2024-05-26 15:51:43,111.96139155902816,114.49896988682738,118.64851329956107,111.94584174746572,97.15996082016588
2024-05-26 15:51:43,111.16739107591144,113.04007109448918,118.27335717455661,110.75730722671503,96.39121935990156
2024-05-26 15:51:43,110.30360028731766,111.84774518852683,118.64489382667347,109.36979185329565,95.91257007441116
2024-05-26 15:51:43,110.50488010554824,112.33957743097028,120.26316378156086,109.67725245650003,97.26857262725146
2024-05-26 15:51:43,111.04577293326493,113.4556380225896,121.85961679089736,110.98313832487892,99.40445668102551
2024-05-26 15:51:43,110.88392602327637,113.65317798377916,121.95490827402966,111.2710897943052,100.17132676924182
2024-05-26 15:51:43,110.01309064938776,112.68831823686813,120.77660382916726,110.2815472784516,99.28437235103831
2024-05-26 15:51:43,109.49181050831187,111.98593793111586,119.81173389506594,109.94759316511022,98.63308106344111
2024-05-26 15:51:43,109.85024054325568,112.69016740027986,119.8934781662164,111.33440571618432,99.54210513238482
2024-05-26 15:51:43,110.58466729308272,114.17638717221215,121.0629850864993,113.44595314840599,101.78665658374904
2024-05-26 15:51:43,111.2648553738214,115.21055581787371,122.7491377197648,114.91185195417039,104.46458109565738
2024-05-26 15:51:43,111.17622347773181,115.11985444526198,123.48238505889894,114.61582073948144,105.7072589320502
2024-05-26 15:51:43,110.56754872346474,114.4266695256206,122.89592811933315,113.10673160836683,105.18820050541676
2024-05-26 15:51:43,110.67545492493943,114.58801940985092,122.80432525837762,112.80555672679469,105.43565910862338
2024-05-26 15:51:43,111.36119355367585,115.75479239892987,123.93475597943137,114.19275544853456,107.39743205096575
2024-05-26 15:51:43,111.8881889329518,117.0201922287661,125.30905305694947,115.8666341638988,109.88851618625826
2024-05-26 15:51:43,112.24486282345198,118.08189790212701,126.64741073940256,117.49940106600782,112.55082221412545
2024-05-26 15:51:43,112.15422312746354,118.10484849552418,127.46272797502522,118.31555962215407,114.6416791507422
2024-05-26 15:51:43,111.08428769307557,116.39756971427869,126.66511988511306,117.04064330614389,114.84949309079215
2024-05-26 15:51:43,109.53284841132465,113.9508639106191,124.46106263991119,114.6425067092852,113.72074184040031
2024-05-26 15:51:43,108.1273631717571,112.03619753037226,122.23721618226723,112.6567191986199,112.75880550386879
2024-05-26 15:51:43,106.84076975817852,110.89000501039844,120.67673212768322,111.24169535479977,112.41008409612971
2024-05-26 15:51:43,105.59583139166205,109.96473000685648,119.66761355373045,110.34677157144854,112.22877168331428
2024-05-26 15:51:43,104.99876376583525,109.30581802583039,119.50912923616204,110.12586913667332,112.60929977738635
2024-05-26 15:51:43,105.68843133696068,109.28512714279378,120.1296528303594,110.39758142810781,114.30917407823296
2024-05-26 15:51:43,106.47806331320777,109.09569416000011,120.28501215115192,110.22593217948534,115.95747577564015
2024-05-26 15:51:43,105.99672898653509,108.07751386769507,119.03689752149234,108.89102084793022,115.80156459378999
2024-05-26 15:51:43,104.87744859263444,106.81144738112255,117.20798882682767,107.07525298724636,114.55654097689724
2024-05-26 15:51:43,104.2994495213215,105.98121499782793,116.46657680738247,106.01019154222172,113.89998235508975
2024-05-26 15:51:43,104.33959918967138,105.74594497057447,117.07520612316603,106.05696403009618,114.24839946366792
2024-05-26 15:51:43,104.52641225830993,105.68232195648011,117.65907065490552,106.46842485112606,114.82729547795795
2024-05-26 15:51:43,105.31054362657484,106.03181286489539,117.96309500723413,107.23899693326392,115.67397124879241
2024-05-26 15:51:43,107.54953721614895,108.06592280817979,119.37008011481419,109.45265374166851,118.5300753958688
2024-05-26 15:51:43,110.7391532344008,111.69918547258807,121.94287457810236,112.8323149230745,123.61910428806473
2024-05-26 15:51:43,113.48260517939804,115.33807553773909,124.321751272632,115.84810299231015,128.35635181780088
2024-05-26 15:51:43,115.16501803526518,117.69398476514556,125.85690720727929,117.69248460822175,131.07137896444263
2024-05-26 15:51:43,116.07945533227017,118.69886604090095,126.92173815981727,118.68982561539374,132.531928605253
2024-05-26 15:51:43,116.26160675380865,118.91760697280742,127.42062826328677,118.92223175174311,133.48807554142257
2024-05-26 15:51:43,116.32838876663372,119.41184158853375,127.64359467934011,118.93270243075278,134.891573952572
2024-05-26 15:51:43,117.70010943317182,121.5297607684622,129.12844654287616,120.40125913624885,138.19455534192718
2024-05-26 15:51:43,121.04243445014217,125.72300128366201,132.76198964129554,124.45223259694822,143.83689624300806
2024-05-26 15:51:43,127.25020719794969,132.621787725635,139.2838959535234,131.9704176322363,152.75833313146777
2024-05-26 15:51:43,135.5919161500769,141.39893169979183,147.85058649193394,141.83619380172712,164.10768510246515
2024-05-26 15:51:43,141.43482677394337,147.82086108510103,153.42387820669666,148.8427414873215,171.63663633744304
2024-05-26 15:51:43,139.77216120768384,147.26529612159234,150.63419003375168,147.53320139184953,168.22878583222428
2024-05-26 15:51:43,129.19005138863292,137.81938722520206,138.98311816821007,136.7620655905803,152.37574936616775
2024-05-26 15:51:43,113.39959513476495,122.5221642693769,123.10706119923526,120.57884053117377,129.32872415454713
2024-05-26 15:51:43,99.18407515248978,108.29655142687041,109.82449454182141,106.45500837394997,107.93295235856431
2024-05-26 15:51:43,94.17647595645462,101.83115416019412,105.34516515535063,102.01549120509077,97.36042746476026
2024-05-26 15:51:43,98.50988871844682,102.59153955439669,108.04429194731175,105.81439134796983,97.55520701855052
2024-05-26 15:51:43,102.87838309581656,104.14426364263508,109.94403775936433,108.91934105940192,99.20798166273467
2024-05-26 15:51:43,104.16506772561145,105.62260655988918,110.65475114057769,110.55267204322689,100.14003788653969
2024-05-26 15:51:43,104.90872867969958,108.60804181351594,113.08040833446789,113.64916568957716,102.57352161773487
2024-05-26 15:51:43,104.7653092147378,110.8432126186021,114.96257205326808,116.29454529732703,104.43095044806155
2024-05-26 15:51:43,104.34584903279907,111.24465394501397,115.3125412029473,117.61661049915767,104.86670191393863
2024-05-26 15:51:43,105.21801888121973,111.11284746342683,115.99170026728405,118.52977753972371,105.01607129032867
2024-05-26 15:51:43,107.44011214797641,111.4550106920214,117.850660485019,119.40499046868248,105.42360702113191
2024-05-26 15:51:43,110.53414375505908,112.74896940604198,120.35983920382705,120.69063716405289,106.58454570021838
2024-05-26 15:51:43,112.95843439082113,113.81173783457882,121.85667845417373,121.39293531667828,107.32957261899834
2024-05-26 15:51:43,113.16671224603677,112.9403877457679,120.74063782787006,119.74377535544525,105.6648245488379
2024-05-26 15:51:43,112.61384091649498,111.36031419907583,118.38083135057354,117.30661848352625,102.92989562593934
2024-05-26 15:51:43,113.61228454751954,111.09443214538952,117.51567048861162,117.10400659106575,102.18358621614802
2024-05-26 15:51:43,116.01439887964473,111.99359181170865,118.31725784710592,119.05342154251588,103.60982358177446
2024-05-26 15:51:43,117.91684308598008,112.73301409748854,119.20647289846603,120.8156714728083,104.87124882941688
2024-05-26 15:51:43,118.03783577080408,112.2927950363093,119.10837166360493,120.86495849176445,104.22214607459853
2024-05-26 15:51:43,116.7311726559256,110.72754143669117,117.89068674076266,119.41839229526393,101.7775599106716
2024-05-26 15:51:43,115.06278152750795,109.40680139251826,116.4918206932791,117.7627347664684,99.12950345991399
2024-05-26 15:51:43,113.93082025338359,109.50467147793717,116.0332029993012,117.14526218625895,98.02026709357841
2024-05-26 15:51:43,113.46525800970248,110.62806709820681,116.54943125752945,117.56738045832772,98.60271818183702
2024-05-26 15:51:43,113.18570979231717,111.68459071137876,117.46075912157883,118.12542782384962,99.5157955890016
2024-05-26 15:51:43,113.52037758106398,112.78733631370208,118.89405759428439,119.07406707277906,100.76040694812833
2024-05-26 15:51:43,115.52905589442358,115.02429410422245,121.39087603403948,121.47419449430583,103.66394556156672
2024-05-26 15:51:43,118.43445951255835,117.58884583718098,124.34910310240765,124.60721268897936,107.28808751318233
2024-05-26 15:51:43,119.80127175644508,118.23281232872888,125.7295788005687,126.07268548350768,108.14899044201236
2024-05-26 15:51:43,118.73028867125225,116.71388132814411,124.60539760065218,125.11166067746036,104.8357484206371
2024-05-26 15:51:43,116.74135664824871,114.90066866834512,122.40394552632357,123.38240574899709,99.81331230115262
2024-05-26 15:51:43,115.53909742323991,114.17014397127701,120.82962695685592,122.19558347430464,95.57126696275301
2024-05-26 15:51:43,115.74644635749138,114.60874336716466,120.7551229774793,121.84452281362643,93.37451910768382
2024-05-26 15:51:43,117.25349848738955,116.20798374100553,122.53810690876362,122.9174887856297,94.20391140098437
2024-05-26 15:51:43,119.30369605392893,118.6222420568221,125.59883054195235,125.42332007810413,97.1912187724227
2024-05-26 15:51:43,120.88298759315853,120.81479270564222,128.62284977155778,127.96158067309022,100.03654665213955
2024-05-26 15:51:43,121.98040077619262,122.76771393311111,131.0805110141478,130.02315304819902,102.22213763272386
2024-05-26 15:51:43,122.45313915954486,124.32699221913667,132.47032311182994,131.34185043558955,103.67831839726202
2024-05-26 15:51:43,121.15441400951575,124.27140951959534,131.97638761617884,130.65625745763398,103.03598494404491
2024-05-26 15:51:43,118.59347317782758,123.06498935049711,130.3872336456925,128.57662916423166,100.649021346464
2024-05-26 15:51:43,116.34150600213773,122.02198508469895,129.019764943774,126.84888044775619,98.3398892447498
2024-05-26 15:51:43,114.83375379715875,121.61676068636014,128.28155734079175,126.12497818463112,96.91108372258017
2024-05-26 15:51:43,114.61490131513457,122.29518248942733,128.48143311190486,126.68567983149686,97.04355704108647
2024-05-26 15:51:43,116.53000485893273,124.27137975155121,129.97181165011781,128.8537820371595,99.85899944976889
2024-05-26 15:51:43,119.49571289568198,126.37037179029468,131.81435952094046,131.38315453407603,103.90641995572727
2024-05-26 15:51:43,121.06302499526026,126.7682906487318,131.81973601754467,131.81275389739932,105.38576466820443
2024-05-26 15:51:43,120.1874995923584,124.69593604366656,129.3724629709165,129.72358916592964,102.90670006547333
2024-05-26 15:51:43,117.48167860141015,120.4254630039572,125.7640154112024,126.42267104446455,97.86248692712249
2024-05-26 15:51:43,114.64580976493488,116.09047122463092,122.87012488257795,123.82580126780688,93.26901218746532
2024-05-26 15:51:43,113.06625995625134,114.1809011219475,122.0146899022989,123.41566728141615,91.76001013385387
2024-05-26 15:51:43,112.55792279336522,114.38315431838335,122.79493870158372,124.78100875624551,92.75314978587069
2024-05-26 15:51:43,112.45007506637914,115.2170341411977,123.88027946496149,126.61645334421817,94.3931872178302
2024-05-26 15:51:43,111.80633474717067,115.65600895438693,123.73428656067055,127.39708992332123,95.34533706520018
2024-05-26 15:51:43,109.43042843627106,114.50695692334547,121.18399886301492,125.74551984516286,93.96017368270161
2024-05-26 15:51:43,105.20110790822817,111.61128468867126,116.836658619346,121.89855685978301,89.76014393444697
2024-05-26 15:51:43,100.68568846666426,108.41441372162895,112.95476359274961,117.94504005574356,85.35056842487137
2024-05-26 15:51:43,97.3987240168556,106.09882560917555,110.98521490539909,115.5389889717864,83.06593530161098
2024-05-26 15:51:43,95.36323816244456,104.9692545965992,110.56299864717056,114.6953340078591,82.49179387250591
2024-05-26 15:51:43,94.29831483785122,104.73604789133302,110.90357259767353,114.80317228009349,82.89022079264033
2024-05-26 15:51:43,93.8747318043721,104.37512882931989,111.15812677835162,115.02123498961917,83.61709481437151
2024-05-26 15:51:43,93.11480062724618,102.9534853689542,110.29887838254939,114.20520018607571,83.52777486006029
2024-05-26 15:51:43,91.70967044549596,100.95668843130362,108.81218309389514,112.35264090999489,82.63385900788042
2024-05-26 15:51:43,90.94663573745702,100.2854941753738,108.62930520585006,111.43796245592544,82.86573598598592
2024-05-26 15:51:43,91.89818670160007,101.68475759132761,110.44636111078349,112.67915664278985,85.61242970987665
2024-05-26 15:51:43,93.55318029456008,103.48160142280273,112.53259575261774,114.4792856413738,89.19279397022505
2024-05-26 15:51:43,94.46618357746384,104.23482213026081,113.03814844369276,115.12673996916286,91.4587379143033
2024-05-26 15:51:43,94.72827784644731,104.10849338594906,112.3425814447999,114.83142079245573,92.16567835919741
2024-05-26 15:51:43,95.04292158847369,103.48199024976677,111.61326211621277,114.02898446776571,91.68821305869832
2024-05-26 15:51:43,95.58299473477959,102.61655174656809,111.114656657475,112.56799524809118,90.66348114637903
2024-05-26 15:51:43,96.58597035534243,101.97587655654041,110.67027690397332,110.8903931134932,89.83858645114654
2024-05-26 15:51:43,98.45678619000118,101.89694517958121,110.1528209576664,109.86481383230986,89.55606525949537
2024-05-26 15:51:43,100.85198808929756,102.11766299583876,109.78349739575921,109.59784683645397,89.95000975146057
2024-05-26 15:51:43,103.3177974102829,101.89640837637502,110.27943498281454,109.81746970073215,91.24244892468471
2024-05-26 15:51:43,105.50540252570457,100.96321504667927,111.33348984086275,110.12772148800902,92.97049944225844
2024-05-26 15:51:43,106.64746052104334,99.61300314531505,111.34796416921729,109.65514096006605,93.70589597747316
2024-05-26 15:51:43,106.84089124261772,98.6201708490103,110.18105349628644,108.42253487862934,93.5027541059319
2024-05-26 15:51:43,107.45571400584822,98.61789882290341,109.37822037145231,107.80431223908107,94.34148313190418
2024-05-26 15:51:43,108.86640461586938,98.85577103147409,109.3312134518767,107.91090254089842,96.40893906566086
2024-05-26 15:51:43,110.55771246020217,99.1244159645732,109.81496087566573,108.1235823215687,98.44593535368833
2024-05-26 15:51:43,112.6840345731257,100.10924109945786,110.92944371902563,108.75794059615251,100.25518887032118
2024-05-26 15:51:43,114.4580623258067,100.88920718294546,111.57094662337873,109.09981733312908,101.12623706611474
2024-05-26 15:51:43,114.95659189733693,100.77389629032264,110.9468818399252,108.31124996940535,100.55390886624471
2024-05-26 15:51:43,115.71579654121884,101.40119310302033,110.66855762025045,108.23795337951658,100.98468643017215
2024-05-26 15:51:43,118.14411158006715,103.72238517314292,112.45922145799935,110.50580437169043,104.6326379369853
2024-05-26 15:51:44,120.74312653781453,105.77410646426283,115.32754492064856,113.14065438849696,109.24174455263369
2024-05-26 15:51:44,121.5787618398468,106.11386197538262,117.26770956140594,114.26851739820724,111.93326626240571
2024-05-26 15:51:44,120.74506042729837,105.85558557180792,118.09948154426118,114.58216995322067,113.15438138078127
2024-05-26 15:51:44,119.01206482816215,105.5580016665142,118.00126915524181,114.40441433261637,113.30859852613672
2024-05-26 15:51:44,117.08156408831861,104.8661447730355,116.68001977247015,113.35283623878018,111.93796412182772
2024-05-26 15:51:44,115.69401328217747,103.86913666773953,114.87093125402397,111.68229421528045,109.83200165122935
2024-05-26 15:51:44,114.89067133642479,102.44595800639544,113.48551030840851,109.85459437105334,107.73215367079573
2024-05-26 15:51:44,114.81860744180604,101.38654663918042,113.05202896785559,108.98677355348406,106.4227334977688
2024-05-26 15:51:44,115.41460256308817,101.77167148822957,113.3752802298144,109.66167212466684,106.50327824212562
2024-05-26 15:51:44,115.4236293420434,102.95213560680556,113.51985797934577,110.6013984916874,106.66176231375303
2024-05-26 15:51:44,114.26498095393595,104.01539204912146,113.37396824487362,110.76974741826122,105.84821252883779
2024-05-26 15:51:44,112.74587315127329,104.84483250009859,113.50269060194381,110.14771298912456,104.39456004473021
2024-05-26 15:51:44,111.91646682605996,106.10361216852306,114.18370127251052,109.73501921861636,103.24232816384001
2024-05-26 15:51:44,112.43500747738496,108.62183715347462,115.2842785477225,111.05206823593629,103.72614937340859
2024-05-26 15:51:44,113.49342273574902,111.46597756724573,116.18966722617265,113.30949441668379,105.2547811888074
2024-05-26 15:51:44,113.19992143087364,112.49751277798599,116.1390608281522,113.83788106531254,105.38540632101476
2024-05-26 15:51:44,110.929629594091,111.16267172091517,115.1383957815694,111.96090226608251,102.88184580902849
2024-05-26 15:51:44,108.13810054237594,109.18413325012494,114.14829704767195,109.28430068725044,99.03992228461915
2024-05-26 15:51:44,106.72260328190407,108.73347681877262,114.43952627027474,107.7196477272611,96.64676885688714
2024-05-26 15:51:44,107.53720851503192,110.82607199687975,116.70316420239175,108.9813438379801,97.67463470819841
2024-05-26 15:51:44,109.90179178602897,114.60790633487365,120.0626777182326,112.92220395069457,101.32077583196649
2024-05-26 15:51:44,111.41727274034403,117.11309731820933,121.8878705485701,116.2806937328969,103.62425068032762
2024-05-26 15:51:44,110.24174232607973,116.33130995346382,120.49012495092977,116.39988565044291,101.53682272099387
2024-05-26 15:51:44,107.79598133386136,114.08062696570796,117.80921255357214,114.50603468010809,97.06666699211252
2024-05-26 15:51:44,106.28197892740218,112.70470387901695,116.48045545275056,112.82092565637643,93.78385790063375
2024-05-26 15:51:44,105.978858790898,112.75841283254928,116.61102972297662,112.08290001072046,92.60293729690103
2024-05-26 15:51:44,106.45689084867757,114.0947909485695,117.27997969391222,112.3552929581396,92.819281579516
2024-05-26 15:51:44,107.3234774401188,115.95127083702722,118.2799502754325,113.20542095979798,93.71314904626892
2024-05-26 15:51:44,108.29731451645662,117.31525133623781,119.27158997928352,113.84495134429696,94.4616307501997
2024-05-26 15:51:44,108.79415166718867,117.69525647945936,119.50964932378982,113.8921927156774,94.12881879070683
2024-05-26 15:51:44,108.12196215308984,117.18015411848847,119.1912649216011,113.63964631985608,92.76906041710502
2024-05-26 15:51:44,106.68386278189543,116.0023904311656,118.9292046080338,113.48994839889043,91.0794284790308
2024-05-26 15:51:44,104.9114962463451,114.44766853145734,118.27442068573659,113.26124846219754,88.59717976629898
2024-05-26 15:51:44,102.33589982852894,112.43828758159306,116.18109748250305,112.14314841781052,84.27028277834818
2024-05-26 15:51:44,99.30987458977208,110.04680804601595,113.172953734042,109.93595478840808,78.65476947416576
2024-05-26 15:51:44,97.82855674362189,108.657540733198,111.46315573963973,108.52604192858104,74.51393168535684
2024-05-26 15:51:44,99.03309758019884,109.52430024046893,112.42584172460985,109.67026701646337,74.30280210571142
2024-05-26 15:51:44,101.1207115576772,111.46346550365605,115.02189296447875,111.88861924084213,76.63154890987836
2024-05-26 15:51:44,101.40935378509622,111.81332891251134,116.60408896422379,112.35179059123067,77.50144020899747
2024-05-26 15:51:44,99.80170366824477,110.15136940130719,116.15015460593436,110.74130679932543,75.64044585411641
2024-05-26 15:51:44,98.52374017769523,108.80063998412977,115.12565261212106,109.15166584601229,73.68994952832813
2024-05-26 15:51:44,98.93594276315997,109.41650604660303,114.91715537539577,109.14224751266545,74.03352224597788
2024-05-26 15:51:44,99.82365113680287,110.85967578733667,115.05130839714217,109.818721487419,75.61549971648874
2024-05-26 15:51:44,99.31699676733679,110.88921387782297,114.03558841775475,109.27526568131425,75.84916995042533
2024-05-26 15:51:44,98.13272939835404,110.03107745161086,112.32903122596554,108.26090526439255,75.10701362921262
2024-05-26 15:51:44,98.089852309025,110.38270844075272,111.54936515096755,108.71559241009702,75.42692483541353
2024-05-26 15:51:44,98.88450707570807,111.58653627319529,111.5532601639463,109.97209026917952,76.40400498521413
2024-05-26 15:51:44,99.76717342397407,112.79563079454655,111.96423939841921,110.85705858295645,77.286498423356
2024-05-26 15:51:44,101.33971429106192,114.61725111419236,113.425705877556,112.18818140590571,78.86356298434114
2024-05-26 15:51:44,103.83370061460364,117.05280826265903,115.7313256585984,114.78907010089353,81.42958798735826
2024-05-26 15:51:44,106.49220099601965,119.27055390284357,118.12708661218967,117.96611798480438,84.68447328537218
2024-05-26 15:51:44,108.64373499279648,121.09969799339876,120.53204052893722,120.95987288229193,88.47025803004462
2024-05-26 15:51:44,110.62011473473528,123.38935165933641,123.32729140813089,124.25509245065527,92.96690316676043
2024-05-26 15:51:44,114.02666537586012,127.8430954176853,127.88900078227753,129.50737707110403,99.3364054920253
2024-05-26 15:51:44,119.98353286883778,135.28674640558896,135.35014609961695,137.5891970921562,108.5053923414094
2024-05-26 15:51:44,127.39856487941277,143.98287153164915,144.08126605897365,146.6570368354082,119.01932148447375
2024-05-26 15:51:44,133.93536094286017,151.15665671651408,150.64146001611766,153.77429711966496,127.68230356827516
2024-05-26 15:51:44,136.73146650852254,154.0123079099135,152.04054981186212,156.19493077712144,131.19275464829795
2024-05-26 15:51:44,131.62438032263998,149.07661062544176,145.4212686671062,150.2975956392176,125.04125747374925
2024-05-26 15:51:44,116.6275495478575,134.9252595969984,129.21188693457646,134.2145751278357,106.09505795388885
2024-05-26 15:51:44,97.13022654963828,116.61754784056235,108.4222744343194,113.64620181732258,80.11888079027383
2024-05-26 15:51:44,82.87598922659159,103.36031378452013,93.65892444090285,99.61010743779076,60.05696686165759
2024-05-26 15:51:44,79.6386246019917,100.42469198600818,91.28510604923476,98.14885975573989,54.55596341183125
2024-05-26 15:51:44,85.02852606811601,104.99853327089448,98.02614212260235,105.4415900966349,61.05201411529595
2024-05-26 15:51:44,91.70675009329446,110.5541947999499,105.83337279125612,113.14663874897406,70.00957848818044
2024-05-26 15:51:44,94.93124158244875,113.48187831617675,109.8902229747127,116.56859581985056,74.7851831890996
2024-05-26 15:51:44,95.2370214381554,114.10882459565774,110.18505769214833,116.49973477912441,74.95690507748256
2024-05-26 15:51:44,94.63252749599962,113.87650233655422,108.22229388464528,115.27323494354415,72.6670975864821
2024-05-26 15:51:44,94.07513387596913,113.58259109393171,105.73864661647522,114.20682906450915,70.06978705380862
2024-05-26 15:51:44,93.34306913441833,112.86209689796421,103.77331471641793,113.05907654611846,67.6175113251367
2024-05-26 15:51:44,91.39934317864135,110.63084646641613,101.59486260620797,110.65279775202329,63.891056918934495
2024-05-26 15:51:44,88.73413457195255,107.57641993828855,99.07905445678412,107.58164299754554,59.279652327817374
2024-05-26 15:51:44,87.87605112415679,106.22722445289733,98.18907864197006,106.19449292481535,56.959909716125594
2024-05-26 15:51:44,89.6070025359348,107.50534268711206,99.97460640263292,107.34940114135706,58.292913130350584
2024-05-26 15:51:44,92.54412105610412,110.62889630191408,103.46776834883615,110.31342895952983,61.96310479147324
2024-05-26 15:51:44,95.56993965481631,114.31854557831431,107.12911299461217,114.00999861889161,66.46580593549601
2024-05-26 15:51:44,97.50845378410934,116.71729679109681,109.51949930796532,116.56671655861358,69.94201465201297
2024-05-26 15:51:44,97.37770959030402,116.72256916399543,109.87578758780674,116.4930604035031,70.44522349556937
2024-05-26 15:51:44,95.88389610868126,115.34993860714167,108.45948137350518,114.48266468170878,67.91043428563549
2024-05-26 15:51:44,94.82133627612016,114.7933201009429,106.72805648220394,112.84729477817736,64.56886150728413
2024-05-26 15:51:44,95.11656301667942,115.66490915490928,106.01137252642398,112.92405987190517,62.47690991617788
2024-05-26 15:51:44,96.05977833332567,116.7481344487841,106.11542135269016,113.81650550783785,61.5944726325794
2024-05-26 15:51:44,96.03772386346907,116.75426279974377,105.64822118999444,113.85277057772564,60.29582718821071
2024-05-26 15:51:44,94.9235889189068,115.85366492099996,104.06714446377619,112.89697382490483,58.27733599456865
2024-05-26 15:51:44,95.37107209570588,116.5466840983944,104.10269948548316,113.59521593654435,58.71406082652584
2024-05-26 15:51:44,98.14034779277388,119.20348418930266,106.90961803940226,116.68109617330558,62.17862960884494
2024-05-26 15:51:44,100.38908256530534,121.00983210844416,109.29062662289186,119.22666683064642,64.36075404780678
2024-05-26 15:51:44,100.8224847892123,121.3337020448131,110.11826199222591,120.12013888711715,64.05699293038163
2024-05-26 15:51:44,100.28448873202973,120.67249951235428,110.67607470037456,119.80891219267697,63.241706530419755
2024-05-26 15:51:44,99.56152646388772,119.35845726864231,111.40478798864241,118.83123087964829,63.01845627185119
2024-05-26 15:51:44,99.119552391386,118.52579383086854,112.34558676327447,118.27095107804078,63.88614583025925
2024-05-26 15:51:44,98.55531793735649,118.08050530905037,112.95788446670309,118.00174227204279,64.93262167966999
2024-05-26 15:51:44,96.918818229018,117.02569439221395,112.20622730241038,116.81774248210687,64.18271522705324
2024-05-26 15:51:44,94.97509627965415,115.96945412709609,110.58457702098131,115.26518708703094,62.081656307224975
2024-05-26 15:51:44,95.88345185108824,117.54888082227068,111.22103262949167,116.73780809780605,63.19442592739472
2024-05-26 15:51:44,100.6864519200902,122.66829870859254,115.77560559233372,122.4123498406467,70.42288402619121
2024-05-26 15:51:44,106.05013300663424,128.28950225863923,121.08209763640211,128.4136723312346,79.83361829557572
2024-05-26 15:51:44,108.68582572816422,131.30177534111147,123.50847156835593,130.85462029254361,85.87113840536642
2024-05-26 15:51:44,108.00122585459616,131.04140574663515,122.56146095106749,129.2817701665235,86.9161769778581
2024-05-26 15:51:44,105.30665821452263,128.76940762026612,119.6859877650686,125.88645476895789,84.79727865606611
2024-05-26 15:51:44,102.8947378241488,126.7471140883909,117.26835716187294,123.33268118168606,82.63711125436802
2024-05-26 15:51:44,102.12082670985045,126.1950854972909,116.67998584328784,122.67310670999707,82.28480654449471
2024-05-26 15:51:44,102.23210701692823,126.8995870438994,117.3509877402474,123.63038599176966,83.10649340358016
2024-05-26 15:51:44,102.12996254324752,128.212956126854,118.45789334066956,125.3392854240575,83.50548790518766
2024-05-26 15:51:44,101.13012506061108,128.82763028711403,118.60208019981118,126.08004896447505,82.3004631629842
2024-05-26 15:51:44,98.40553145749523,127.17471580074047,116.18169059879254,124.07538690325191,78.44122127369333
2024-05-26 15:51:44,95.20123849273065,124.3253670228594,112.87488521788086,120.67031444718833,73.73388584451342
2024-05-26 15:51:44,94.11617637148726,123.18824500266291,112.06758968040246,119.41321467552801,72.4754744780891
2024-05-26 15:51:44,94.72549715920184,123.65171296970314,113.08271118949932,120.26791683191722,74.5348417425744
2024-05-26 15:51:44,94.8994087171647,123.56845835097033,113.15962590220687,120.739088727185,76.37273766479679
2024-05-26 15:51:44,93.9941969976636,122.27248330225156,112.1402173710557,119.95874483817687,76.64752006925634
2024-05-26 15:51:44,92.74433179310205,120.50826373986085,111.34267239753714,118.57500346721643,76.05516966733019
2024-05-26 15:51:44,91.39336269633624,118.65299811787499,110.7030995217948,117.05575011530469,74.98716242280662
2024-05-26 15:51:44,89.31234155316626,116.3753568389549,108.9776322248496,115.15433604602339,72.90968095923013
2024-05-26 15:51:44,87.35569520173917,114.42775704926811,106.95014944063941,113.78700247919737,70.69258549063534
2024-05-26 15:51:44,86.64298208900489,113.76861117695697,106.42467916369444,113.90551365302707,70.14901020094446
2024-05-26 15:51:44,86.72844111846776,113.75336392257861,106.91444878306505,114.44747074054331,71.00570949826196
2024-05-26 15:51:44,86.86695105377635,113.36181983547824,107.13488202560498,114.2565818267246,71.63790975233633
2024-05-26 15:51:44,86.49888449251307,111.95985908751693,106.68145301749041,113.14051814330091,70.86187615515465
2024-05-26 15:51:44,84.87331328399685,109.03515110429413,105.08889490365907,110.57486434879334,68.0312015063547
2024-05-26 15:51:44,81.42779526355143,104.88021959849577,101.89535643208987,106.26912328561569,63.142116820239394
2024-05-26 15:51:44,77.39179686998713,101.125867683238,98.25430864977199,101.93839167695234,57.95425420886058
2024-05-26 15:51:44,75.50876033483858,99.80915484035778,96.73018799171733,100.38918217847379,55.7533254093036
2024-05-26 15:51:44,76.70575298523323,101.24170184275046,98.18459864784177,102.02835065885058,57.95873250125858
2024-05-26 15:51:44,78.37285010170778,102.89924230628819,100.06878749942062,103.63071949908353,61.509211440444055
2024-05-26 15:51:44,78.25672341807837,103.06468355722241,100.3765258913933,103.12009106572218,63.2056104136375
2024-05-26 15:51:44,77.7983584505166,103.4565305226203,100.61673210325978,102.49568595083534,64.62394336475407
2024-05-26 15:51:44,78.01771340697123,104.78782539201174,101.6120326122096,102.9466632054568,67.25255158609065
2024-05-26 15:51:44,77.59183517047695,105.56110911831627,102.07895645227731,103.08914419389437,69.38692627842231
2024-05-26 15:51:44,76.30584820875538,105.50545076510514,101.75666766229541,102.77774901266662,70.1674990182155
2024-05-26 15:51:44,74.88038121598294,105.39247058070558,101.51041501387184,102.9144364197243,70.16063811381653
2024-05-26 15:51:44,74.0636846005816,105.99277859305045,102.37838174915689,103.90937894523395,70.58268206570888
2024-05-26 15:51:44,74.95675515685954,107.69082219301288,104.93097911586185,106.03450004313152,73.05057051936464
2024-05-26 15:51:44,77.13624244317451,109.69802510633947,108.08321867414564,108.4492168787654,76.88118430986793
2024-05-26 15:51:44,78.68105024570858,110.7890981998326,109.95888318305806,109.36774733293454,79.43973483579968
2024-05-26 15:51:44,78.80867138039262,110.63026061829787,109.9498253872753,108.34974144124823,79.92931816093737
2024-05-26 15:51:44,77.29286559065416,109.01028804825138,108.00662204414026,105.77309419371466,78.51886240206173
2024-05-26 15:51:44,74.32542655970775,106.13087763149915,104.6015950304582,102.16054320773239,75.32039717939989
2024-05-26 15:51:44,72.41722071643599,104.27581464379362,102.25447640975091,99.84205400287519,73.26482158356889
2024-05-26 15:51:44,73.21192680119232,105.03249258135855,102.67630931871399,100.57560338017942,75.07587536204596
2024-05-26 15:51:44,75.23213102634921,107.00306075826332,104.46785645487789,102.84878793241806,78.93877420227727
2024-05-26 15:51:44,76.94854571774044,108.6865815765203,106.06682306413713,104.5776047006106,82.24567215298978
2024-05-26 15:51:44,78.07058145321867,110.13720068255846,107.4722064225144,105.56410017618437,84.80528300653798
2024-05-26 15:51:44,78.71202473538158,111.46333364903643,108.71616538622827,106.35067817356452,87.08910991399766
2024-05-26 15:51:44,78.92263013815978,112.51592273736357,109.37381921791912,106.83854920332396,89.08688039249819
2024-05-26 15:51:44,78.56112301207925,112.74112634880998,109.45634783373244,106.71196475215879,90.35593805943986
2024-05-26 15:51:44,76.69997270852318,110.79871126316925,108.68293436115911,105.36090709625852,89.5193148739728
2024-05-26 15:51:44,72.7920534336032,107.48405669277106,106.91231597403177,103.02880403584338,86.38822742382294
2024-05-26 15:51:44,68.99636011637527,105.56553304124624,105.43708567982912,101.84025054949072,83.72116658137392
2024-05-26 15:51:44,67.39948782122426,105.68368397533753,105.35410627214878,102.61351585827018,83.83855218465665
2024-05-26 15:51:44,68.42313779531447,107.45225047774083,107.14359100464343,104.88557443871589,87.5070595757615
2024-05-26 15:51:44,71.70518822559254,110.57954320387644,110.26915269081513,108.25448109101757,94.29120058016655
2024-05-26 15:51:44,75.25820944176056,113.57718026800706,112.84281690012409,111.10745454416158,101.50756195864999
2024-05-26 15:51:44,77.29247931199075,115.05131684326957,113.9291888307607,112.28259244660597,106.23834385423824
2024-05-26 15:51:44,77.44596341737538,114.82572452957024,113.65204060314741,112.18895491109546,107.64556035958154
2024-05-26 15:51:44,76.20950737093133,113.38047283277487,112.11668829450515,111.13512659715485,106.61748612225155
2024-05-26 15:51:44,74.08679625693726,110.85959681452178,109.2747209280359,108.74786262406016,103.95503742478908
2024-05-26 15:51:44,71.55723946648307,107.81634693752068,105.94397515486176,105.47289288780925,100.95590959514257
2024-05-26 15:51:44,70.34530153010135,106.36663565955102,104.46943876046956,103.5965650556601,100.58527196647812
2024-05-26 15:51:44,71.92168581645124,108.0909041315066,106.421771908779,105.19353599035333,104.56809192222282
2024-05-26 15:51:44,75.3150980871025,111.66220734423999,110.41488619405902,109.18678458354887,110.9964130721612
2024-05-26 15:51:44,77.91853498621936,114.221492547022,113.23371995029872,112.30554949514475,116.4169057543074
2024-05-26 15:51:44,77.62833215337244,113.64165791843361,112.69902778371564,111.95971024033834,118.31293750462632
2024-05-26 15:51:44,74.55584412495715,110.27969441850699,109.31395300211847,108.23842677198279,116.51015390540013
2024-05-26 15:51:44,71.20016277032835,107.19928734120136,106.12395982973324,104.50519850261162,114.07681227151937
2024-05-26 15:51:44,69.96168196734597,106.93261962789862,105.90710246847567,103.85468079980927,114.24112319628222
2024-05-26 15:51:44,70.53482137416168,108.71449959474855,107.88097109739746,105.54503934346279,116.7044958868592
2024-05-26 15:51:44,70.70480459010169,109.49323230373943,108.72429599510565,106.38404792179858,118.3424203502877
2024-05-26 15:51:44,69.46545015150434,108.08076733524229,106.96380590116267,104.79452833021865,117.32113842588285
2024-05-26 15:51:44,67.80387380296757,105.99682479908188,104.21648374939726,102.01139826598329,115.24109409683221
2024-05-26 15:51:44,67.258202396011,105.07743758450661,102.88690243014229,100.40630500909118,114.65970585592734
2024-05-26 15:51:44,69.59191389336031,107.38882558618457,104.97573696124937,102.49804375361768,117.71370236892962
2024-05-26 15:51:44,74.97938718663258,113.18247344175654,110.37069648880369,108.36127588860211,124.74714816269633
2024-05-26 15:51:44,80.400016600565,118.91223631491128,115.96669920263221,114.21891618628855,132.42206393024787
2024-05-26 15:51:44,82.40200660607388,121.15171731421613,118.51709729779401,116.29457349742671,136.6587847911528
2024-05-26 15:51:44,80.05880336472666,119.8244822529133,117.07051272800656,114.23982345167009,136.13263318834595
2024-05-26 15:51:44,75.65045834669488,116.98636905923189,113.47980405105392,110.55833484379188,132.75635312008478
2024-05-26 15:51:44,72.59832577727548,115.00200279476542,111.16040782596012,108.18536996889388,130.22644070980147
2024-05-26 15:51:44,71.81843785404251,114.60308848271863,111.13616637358496,107.88340153579378,130.09387096952332
2024-05-26 15:51:44,72.25426543791473,115.29097473885112,111.96768500804346,108.84182533927788,131.42998588090356
2024-05-26 15:51:44,73.56346587841338,116.97932482138046,113.60319629697716,110.93642211584475,134.0447264497983
2024-05-26 15:51:44,75.07439723574552,118.53358522238564,115.83795607153084,113.11210905234401,137.01757023129895
2024-05-26 15:51:44,75.16144443805862,118.35893651532922,116.5047782212741,113.04096315075006,137.7906540996033
2024-05-26 15:51:44,73.50626633660274,116.64344447374464,114.53202946367195,110.53240422130592,135.88776487961746
2024-05-26 15:51:44,71.1266212474729,114.50281912754134,111.23248812921368,107.42367662881584,133.18925612088182
2024-05-26 15:51:44,69.27691008366425,113.04461997236342,108.87696850023667,105.11667672625697,131.47943728974136
2024-05-26 15:51:44,68.95568643759017,113.07946731479683,108.77781523946433,104.41356984977566,131.68301659305374
2024-05-26 15:51:44,69.71093252503232,114.20577520472717,110.23522136986699,105.23607399505534,133.13052667726632
2024-05-26 15:51:44,70.3232790689485,115.10862344830703,111.80376896389113,106.22335968236871,134.1293863544512
2024-05-26 15:51:44,70.16005976652349,114.91894247031823,112.63738772034034,106.20623372736404,133.60353752830213
2024-05-26 15:51:44,69.09883095571954,113.65560879163439,112.37629412498036,105.11419328589928,131.6833015044083
2024-05-26 15:51:44,67.8344241128539,112.39746477118935,111.3663812669053,103.8861699763003,129.87097503973206
2024-05-26 15:51:44,67.06994158758356,112.32253392176871,110.49696863272389,103.45407341728605,129.6470804075509
2024-05-26 15:51:44,66.75419122028737,113.14585601762712,110.32447386984533,103.69917857982537,130.8497772516133
2024-05-26 15:51:44,66.89178153544864,114.0565746038229,110.85134620417992,104.217664854511,132.46187345337324
2024-05-26 15:51:44,66.63920080081306,114.35390635849132,110.98689025976404,104.2421301154954,133.04101601616216
2024-05-26 15:51:44,65.05701736466783,113.78697318432103,110.06298879114095,103.37256133850421,131.9384767916853
2024-05-26 15:51:44,63.64553167419524,113.98527668404095,109.65049879044375,103.3702073826079,131.37956972731365
2024-05-26 15:51:44,64.58681020552858,116.32253152985497,111.60642081903313,106.17759480347127,133.72850778860143
2024-05-26 15:51:44,68.38170427387134,120.0258064627595,116.08263788690415,111.34555339525932,138.5989857171258
2024-05-26 15:51:44,73.69611933605036,123.79820139938896,121.39114429079618,116.74125876574621,143.87790331872026
2024-05-26 15:51:44,78.65194871738822,127.12026025635674,125.95633567948454,121.05642958850177,148.04892326939554
2024-05-26 15:51:44,82.81568731563104,130.7639041161769,130.06154822899597,124.79245634319349,151.80448125906986
2024-05-26 15:51:44,86.71984837072577,135.29801609408423,134.362480618052,128.64136868309168,156.30095791607494
2024-05-26 15:51:44,91.21223884619343,140.500291947031,139.2800428615655,133.26467174346416,162.21791983884242
2024-05-26 15:51:44,97.34172330156275,146.8434975333653,145.55626813947362,139.84092473126384,170.41288443594706
2024-05-26 15:51:44,104.56520414250058,153.81519262224688,152.60398572010962,147.78988710277667,180.0494128966956
2024-05-26 15:51:44,109.18150764417825,157.57672315601994,156.24527390076858,152.41368487995476,186.04370639809085
2024-05-26 15:51:44,105.8323645641116,153.0690034342124,150.5041610504696,147.62920751571374,180.73930996476122
2024-05-26 15:51:44,91.73173915950309,138.2816744889469,133.42722141065963,131.2572180472396,160.60738906566314
2024-05-26 15:51:44,71.755525896704,118.46409462247165,111.36617871916462,109.5265660445144,132.93409207580487
2024-05-26 15:51:44,56.343763650038355,103.5820906916654,95.17530811967934,94.0746897695899,111.71495549015502
2024-05-26 15:51:44,51.56158453775989,98.80999840228341,90.85254943454159,90.8138219368291,104.5296746286807
2024-05-26 15:51:44,55.57799008384113,102.11913050987647,96.43188932921548,96.64161258231394,108.79047371826692
2024-05-26 15:51:44,63.00718074966147,108.65178925877169,105.6194707649824,105.17670386884195,117.53718634162786
2024-05-26 15:51:44,68.97299549590679,114.06639354254406,112.53115955206242,111.33958118848896,124.80334188792158
2024-05-26 15:51:44,70.63176925222729,115.84611993913609,114.2086059248129,112.48949445717062,127.3459904654301
2024-05-26 15:51:44,68.36190538190091,113.94004668983335,111.39985351146777,109.47009722923177,124.99925169161449
2024-05-26 15:51:44,65.60865873929819,111.37123886769834,108.2863289715189,106.40544497547808,121.59558125208733
2024-05-26 15:51:44,65.72380356807236,111.95288134312,108.82657526575746,106.93944534304848,122.00390736859029
2024-05-26 15:51:44,68.38132678945115,115.52439392274196,112.4711904324349,110.44653301705459,126.16720432833714
2024-05-26 15:51:44,70.03259835145522,118.21168781300808,114.82892519593432,112.70781122020317,129.19884342301927
2024-05-26 15:51:44,68.81249788705927,118.13136550208617,113.65007111503682,111.46847612379426,128.28278098718164
2024-05-26 15:51:44,66.3049209266457,116.7298202707197,111.23115789051029,108.59852249595444,125.363496417529
2024-05-26 15:51:44,64.3986817993298,115.25603457642502,110.21085400922333,106.38151135143515,123.11380336031313
2024-05-26 15:51:44,63.57209587797135,113.81248483573538,110.84297335289187,105.34004115007055,122.25033963337805
2024-05-26 15:51:44,63.62893231445186,112.81277864048347,112.00551068847861,105.17085904739135,122.48735080180498
2024-05-26 15:51:44,63.80828708870052,112.29403871969163,112.70482858452878,105.1346328420479,123.02467486637717
2024-05-26 15:51:44,63.768736615024935,111.85819007535035,112.80376790471482,104.75743139303331,123.48717027588424
2024-05-26 15:51:44,64.2804264365806,112.12581378959968,113.05492035586391,104.87626770121578,124.61795614056007
2024-05-26 15:51:44,65.66411411501224,113.54863137405107,113.93745049311653,106.10562924788042,126.43930248005573
2024-05-26 15:51:44,67.18703607595793,114.95434424944585,114.71667415705451,107.6806611082068,127.8152220173097
2024-05-26 15:51:44,68.44077227776546,115.64108092233299,115.22597751512627,109.13500019774581,128.66574248197045
2024-05-26 15:51:44,69.87147288695607,116.64290281158866,116.37420440800413,110.98977780495956,130.37131815804165
2024-05-26 15:51:44,71.36233855267022,118.1751000615468,118.00549525815285,113.03445099108578,132.84285421633504
2024-05-26 15:51:44,72.19458220654911,119.4077971889047,119.04760596820113,114.20415049183703,134.36524088259588
2024-05-26 15:51:44,71.88634949182283,119.95802932737551,119.2219075378025,114.14809686982251,134.17226399107994
2024-05-26 15:51:44,70.34243660595247,119.61934285500769,118.64477395030767,113.10811438925208,132.57448442058845
2024-05-26 15:51:44,68.67806970346236,119.04122091605879,117.82212485385352,112.10592898403421,130.89281724891126
2024-05-26 15:51:44,68.06328341961418,119.58395660956788,117.71664066767042,112.39357970403886,130.65994244046652
2024-05-26 15:51:44,68.00874472235463,121.17450314928828,117.61684823865612,113.40269247233024,131.453185191919
2024-05-26 15:51:44,67.78750833903511,122.25238220129016,116.50999730432888,113.7426884575167,131.57510097439683
2024-05-26 15:51:44,67.65035483220859,122.56527656511675,116.4574561057594,113.85933437178186,131.09664554593186
2024-05-26 15:51:44,68.41961865087546,123.57867667774093,119.33833858096669,115.33294148297188,131.93149205906565
2024-05-26 15:51:44,69.8945596503942,125.46366895918413,123.28787002066989,117.92545488910577,134.3829299168061
2024-05-26 15:51:44,70.54777805380591,126.77332057556436,125.8023314248813,119.61053139676751,136.25656001129533
2024-05-26 15:51:44,70.02065140411169,126.90373288839122,126.11146133540487,119.44497023342909,135.95575484955884
2024-05-26 15:51:44,69.03053661860882,126.4399954689903,124.61758231395753,118.4219518333473,134.31201196710896
2024-05-26 15:51:44,68.49571107692125,126.32858958605318,122.8659122610979,118.12791657492419,133.38985470926534
2024-05-26 15:51:44,69.31649690360722,127.52143356614816,122.60582458036875,119.56514621138162,134.47964738058846
2024-05-26 15:51:44,70.85396094187281,129.507487480394,123.85831033341559,121.97718042643791,136.74183283794477
2024-05-26 15:51:44,72.02298959711217,130.81464197124126,125.23777816699265,123.81152902279919,138.2850407774828
2024-05-26 15:51:45,72.94262138747762,131.35582056979808,125.93860527455156,124.61918320174709,138.49867409571382
2024-05-26 15:51:45,73.6505516611846,131.25409824270642,125.6116707837511,124.24209461724821,137.30404556600584
2024-05-26 15:51:45,73.08852169285194,129.7522745098106,123.58859100150427,122.04382889726469,133.83996796769776
2024-05-26 15:51:45,71.15968387093837,127.29591041180223,120.61226697897355,118.75863298769923,129.31629068019615
2024-05-26 15:51:45,69.83883949522682,125.89092396558375,119.17586161272193,117.02349033073168,127.2013501641407
2024-05-26 15:51:45,70.23378165691011,126.43481214882087,120.10761766894431,117.92350011148224,128.30380004189513
2024-05-26 15:51:45,70.80217448190854,127.39309202037974,121.41240663549885,119.56111529481595,129.80008989701344
2024-05-26 15:51:45,70.0747731795238,127.08890944473643,121.63446269264624,120.12751601488307,129.31912794506673
2024-05-26 15:51:45,67.8787735046416,125.31122498248844,120.57432417122774,118.95860921283504,126.90403564189006
2024-05-26 15:51:45,64.1144417929961,122.11205069411554,117.68718315255617,115.75388879714562,122.89964831372431
2024-05-26 15:51:45,59.60860288244172,118.13864266048954,113.78150228615222,111.74416707449946,118.04461061788929
2024-05-26 15:51:45,56.229036071847275,115.16555265383874,111.16840459115254,109.08120614112393,114.54557095691094
2024-05-26 15:51:45,54.94799718794184,114.27956433285327,110.91291686891125,108.80203657512054,113.78660928456694
2024-05-26 15:51:45,54.970968066850574,114.9450135304209,112.07366519577798,110.23355456677454,114.92549297692918
2024-05-26 15:51:45,54.709569927485646,115.35937996155795,112.5959258255275,111.11487458246161,115.37944023312137
2024-05-26 15:51:45,52.5505373310457,113.28000880934019,110.41369601349393,109.19971128082739,112.26799222726869
2024-05-26 15:51:45,48.378321431274635,108.3915845056726,105.635699035749,104.79461366106007,105.66479407905686
2024-05-26 15:51:45,44.4476158194202,103.33854450017422,101.13037520715028,100.85563431131948,99.26937080725003
2024-05-26 15:51:45,43.03600567832552,100.91892342090192,99.54901617340572,99.82464838574646,96.2630583662463
2024-05-26 15:51:45,44.75147176341923,102.38103765632161,101.27714969086114,102.39818021128248,97.38251927761208
2024-05-26 15:51:45,48.470580905441324,106.68456878019886,104.99580033864709,107.54360666482026,101.45674254495776
2024-05-26 15:51:45,52.204352876932546,110.59657420911705,108.83791878250028,112.52742177672837,105.97651751664714
2024-05-26 15:51:45,54.44109797950044,111.8591971009089,111.08076407090223,114.95885961095188,108.72250258603192
2024-05-26 15:51:45,54.24120676943933,109.96149165823121,110.45280623372014,113.73590022817724,108.03168426605276
2024-05-26 15:51:45,51.7633696264471,105.6491713699057,106.998636654275,109.64215645833615,103.72526550468704
2024-05-26 15:51:45,48.96784125156773,101.33316219460067,102.72812003115551,105.47657384500295,98.37969519546878
2024-05-26 15:51:45,48.102693430185504,99.10511740556142,99.99261724203205,103.42273669820246,94.8457208250377
2024-05-26 15:51:45,49.66122476424468,99.09323542189814,99.4575184042565,103.42675260350558,93.74920718515986
2024-05-26 15:51:45,52.458026761093556,100.1283582006827,100.250976599773,104.44790664013485,94.41692114892341
2024-05-26 15:51:45,55.395282009682695,101.04305498983217,101.37376889342704,105.58813719749271,95.8788419112662
2024-05-26 15:51:45,58.16085276893704,101.8869231047989,102.49352094661225,106.53422873264793,97.22585213562338
2024-05-26 15:51:45,60.28273515779739,102.87611044923632,103.29661856121797,107.17551726277608,97.80653902185252
2024-05-26 15:51:45,61.04180958367421,103.10950399805415,103.24258994712162,106.77136011770324,96.65560049676449
2024-05-26 15:51:45,61.0800886964946,102.4265167803648,102.8921269027931,105.33860318525001,93.97293213685005
2024-05-26 15:51:45,62.03438498753946,101.99830772661825,103.64976253892594,104.56924094298361,91.92579874445526
2024-05-26 15:51:45,63.8715366682644,102.2401956344114,105.43879648632257,105.24689770700887,91.52541765418013
2024-05-26 15:51:45,65.16895875777281,102.42148590013936,106.59472819957746,106.00847149874764,91.62154313961906
2024-05-26 15:51:45,65.28493589652035,102.21873947126986,106.28394306742634,105.92382984105974,91.15731728396804
2024-05-26 15:51:45,65.19104778813372,102.52405797871924,105.61943899542466,106.18466355224614,91.05102895519119
2024-05-26 15:51:45,65.98317805243143,103.9715811899764,106.14291182786727,107.72323538258473,92.4997665771751
2024-05-26 15:51:45,66.50509715623993,105.52583221838908,107.42157227976942,109.1441850191994,93.84513825700039
2024-05-26 15:51:45,65.56419632626539,105.99984122523523,107.82687965914786,108.8897550368692,92.99896993246185
2024-05-26 15:51:45,64.41935470583856,105.98531390750296,107.53373978178493,107.80599858406325,90.84017809764478
2024-05-26 15:51:45,64.90161342443817,107.19014446782212,108.32514684138077,108.12459342847158,89.96179383314718
2024-05-26 15:51:45,67.33651728006521,109.79836509752329,110.77208539651224,110.11651836157873,91.35196318652834
2024-05-26 15:51:45,69.43856250718488,111.52804886773887,112.54352982104442,111.24101952889635,92.36695883355033
2024-05-26 15:51:45,69.25819089401504,110.99319969996888,111.63273497475832,109.97825807621835,90.5982792221092
2024-05-26 15:51:45,68.01902316287969,109.52973542313406,109.34298658795575,107.81883859592068,87.68061677949191
2024-05-26 15:51:45,67.36047315779403,108.45813389018937,107.7086892443561,106.57979553307216,85.98006601925726
2024-05-26 15:51:45,67.27473679694161,107.69652867373983,107.18092186051145,106.43164941789448,85.67025716205664
2024-05-26 15:51:45,66.99804015801803,106.72428706719478,106.9458317754568,106.1533081201989,85.52582984310887
2024-05-26 15:51:45,66.05464569537028,105.18323853424758,106.11508221828942,105.12982573255556,84.39875649218841
2024-05-26 15:51:45,64.43592632754266,103.31914665913934,104.64837248053283,104.13582731824155,82.18219507755113
2024-05-26 15:51:45,62.82286568703332,101.8185187817876,103.11764582277537,103.72932021766694,79.74807633992144
2024-05-26 15:51:45,62.177185842463736,101.1133890380305,102.12399975838301,103.8977986484348,77.88583080156451
2024-05-26 15:51:45,62.72503203685415,101.34016531861106,101.9795010156156,104.47618804592588,76.8453114158336
2024-05-26 15:51:45,64.06268860291615,102.2580463665248,102.43254014379582,105.32858442728366,77.05336243153201
2024-05-26 15:51:45,65.56650840833679,103.14870909935912,102.7557910908889,106.08513631528427,78.06119651642321
2024-05-26 15:51:45,66.87825139983424,103.51380057059569,103.04827145362253,106.53292769073606,78.85126536838462
2024-05-26 15:51:45,68.03649974661975,103.50161956007324,103.84526481219112,106.86210106705812,79.44890113608028
2024-05-26 15:51:45,68.73504524783426,103.32151727875879,104.47752559262732,106.6179113740291,79.64551660941007
2024-05-26 15:51:45,69.478470839877,103.77826091941364,105.03318772722004,106.39916592430018,79.81242828425465
2024-05-26 15:51:45,71.16538578216364,105.37351886234981,106.49703908303732,107.31589488967744,81.1566270806899
2024-05-26 15:51:45,72.60775617910043,106.62972372945801,107.81506357581047,108.18703789223989,82.34220881434449
2024-05-26 15:51:45,72.89012510482421,106.736168313592,107.84896268256719,108.20225353226502,81.33215064053226
2024-05-26 15:51:45,72.92387779130584,106.52906089012154,107.49742440659239,108.38481908045907,78.92162457697405
2024-05-26 15:51:45,73.17146693005462,106.20082757157243,107.23239333728924,108.6740800472033,76.34805456708973
2024-05-26 15:51:45,73.43347627186081,105.72117973037714,106.72350800080426,108.30815257705319,73.96314495075862
2024-05-26 15:51:45,74.17854657308573,105.90251427551178,106.77748151539963,108.10175840011625,72.79553959245949
2024-05-26 15:51:45,76.19471436898179,107.29559652146295,108.11847725634176,109.0356341511055,73.69593268005235
2024-05-26 15:51:45,78.9158306437775,109.04400749499032,109.62481212414937,110.58786780317863,75.55063982353748
2024-05-26 15:51:45,81.05414313171589,110.00866706461235,110.0721429519807,111.90035325376816,76.46329332159195
2024-05-26 15:51:45,82.56225226227372,110.24611761737039,109.69216720680085,112.81286796410889,75.94594417407805
2024-05-26 15:51:45,83.7304825879247,110.04550682420425,109.4338526798029,113.31984359323964,74.72807864984492
2024-05-26 15:51:45,84.16545505038819,109.28317082182032,109.31330533528497,113.28316275539777,73.67329254357685
2024-05-26 15:51:45,84.10069364508577,108.37814795089669,108.8481299777298,112.78717234361608,73.30560892993466
2024-05-26 15:51:45,84.07105350193108,107.8408074680923,108.49467163480564,112.03671847345502,73.5785798595178
2024-05-26 15:51:45,83.79771861341504,107.35346451863549,108.18567673971422,111.14641948326359,73.8491229528936
2024-05-26 15:51:45,82.87598507457032,106.43550089193803,106.91236681510543,110.0289193031966,73.36156857444335
2024-05-26 15:51:45,81.68495418975412,105.1657339866044,104.9272920044805,108.73503554059054,72.10644503731288
2024-05-26 15:51:45,81.76260210526159,104.80632578566667,104.57581500874257,108.69870105821565,71.96107842488387
2024-05-26 15:51:45,84.56209034844103,106.9521591564027,107.75055255906317,111.4947368896182,75.2219916669406
2024-05-26 15:51:45,89.26322864383535,111.38031859590686,113.03329984984654,116.10824824785527,81.08514905708151
2024-05-26 15:51:45,92.68391584210073,115.34161328792837,116.60832619334809,119.16607307950102,85.30454614423988
2024-05-26 15:51:45,92.44562971820419,115.84427768801444,115.81785000657784,118.15325840767886,84.41417010238737
2024-05-26 15:51:45,89.42159178434278,113.04475886431852,111.69258516458497,114.10970698946366,79.60786753396783
2024-05-26 15:51:45,86.1032836279793,109.24586210505797,107.30083656010783,109.76314982063505,74.60919722203562
2024-05-26 15:51:45,84.01073850230904,106.38937885760299,104.48468108274663,106.89444123730318,71.7974124689646
2024-05-26 15:51:45,83.27082345329879,105.22256772918168,103.24616983419341,105.99049849514729,71.23330373330788
2024-05-26 15:51:45,83.48980420951611,105.02912734700193,102.74450574443617,106.17414108349729,71.80205046319178
2024-05-26 15:51:45,83.93930130799524,105.2674473650496,102.54911097820678,106.48720076449291,72.90700182182692
2024-05-26 15:51:45,84.31203935662315,106.12600367590898,102.79168542670345,106.9812774153543,74.44870453144677
2024-05-26 15:51:45,84.57626980936242,106.5486736083203,102.92425679224485,107.04745031938735,75.26159349924238
2024-05-26 15:51:45,84.10149347492161,105.25539338427598,102.20989773779877,105.95735967390753,74.12209914210608
2024-05-26 15:51:45,83.7347746746848,103.68543932591028,101.77473108970591,105.33219504285097,72.9525180991978
2024-05-26 15:51:45,85.34737100911974,104.44167138708521,103.47753790781263,107.17713425982727,74.60397972962305
2024-05-26 15:51:45,88.78518053340515,107.89351052583581,107.11101961216167,111.06492585417865,78.78996919919415
2024-05-26 15:51:45,92.24146917229642,111.77208243718104,110.68386220272009,114.80124240493599,83.16362166726395
2024-05-26 15:51:45,94.05457633658337,113.75914783580532,112.27441738114199,116.47535182052765,85.67907860904751
2024-05-26 15:51:45,94.16270433718046,113.89442624596568,111.79402478217163,116.05738720910352,86.13833694974274
2024-05-26 15:51:45,93.8405720052454,113.48403271451829,111.08679632186836,115.17347925828368,86.34994875643365
2024-05-26 15:51:45,94.13176187306007,113.50988021838687,111.65818971343059,115.25386267172046,87.69500783332734
