Timestamp,Channel_1,Channel_2,Channel_3,Channel_4,Channel_5
2024-05-26 16:02:09,114.33213856680236,129.9702415515371,116.09218648281146,113.40539398037134,234.44350664707213
2024-05-26 16:02:09,112.3193880163229,131.55763349541755,115.90170818269559,112.89223452365042,234.54881721809832
2024-05-26 16:02:09,108.10184076423833,132.29425781461515,117.12565082574595,112.65548688632798,234.4202043377165
2024-05-26 16:02:09,104.5485401216169,132.3502284265792,119.169525589899,112.51039438244581,234.03178139826576
2024-05-26 16:02:09,103.73002690243247,132.5699503251501,120.7903861262825,112.39105426578266,233.81750552768122
2024-05-26 16:02:09,106.00802253271007,134.3941386126144,121.80955359258715,112.41829870145216,234.00661162601116
2024-05-26 16:02:09,109.70113301633297,136.84519513106818,123.18105797646552,112.66554940682413,234.14759290669548
2024-05-26 16:02:09,111.19615464659572,137.1036927897177,125.37515838935624,112.89804399986862,234.0957016968284
2024-05-26 16:02:09,106.05873201124214,133.65950484370256,127.04965582697263,113.21404986234543,234.06403835556875
2024-05-26 16:02:09,92.84976692101664,128.05987386791972,126.7944719627233,113.71123491090566,234.1622909364173
2024-05-26 16:02:09,75.67391631402916,123.14481092007841,125.22377185691072,114.17342002664459,234.3203422642242
2024-05-26 16:02:09,59.2010001825363,119.99876147343815,122.84242731693232,114.73722296592506,234.28185306456834
2024-05-26 16:02:09,44.474654342659576,118.59866503598664,119.74271675316227,115.4977557603215,234.15965415854248
2024-05-26 16:02:09,31.62592278493222,118.5077946585473,117.12691760143872,116.4683838698809,234.10561868228544
2024-05-26 16:02:09,23.52834451115186,118.87466285510766,116.67962824223517,117.67855492939773,234.1653252490817
2024-05-26 16:02:09,23.698198495529407,118.91558098578442,118.56611899561068,118.89769002779443,234.2882021201939
2024-05-26 16:02:09,32.04518818161906,118.08863663421126,120.63838568850869,119.61063211475043,234.25672322694086
2024-05-26 16:02:09,46.14988988562614,116.76865709700594,120.85363816911591,119.50815013245423,234.1706184801441
2024-05-26 16:02:09,63.53109614665081,116.25974594376828,119.21926465413173,119.40716838636966,233.8807751474973
2024-05-26 16:02:09,80.96870898445889,117.94459435338402,117.26394079722351,120.83941121734154,233.39378122862385
2024-05-26 16:02:09,94.61912405105016,120.68573110038307,115.75473300606389,124.09439717993239,233.44558429478963
2024-05-26 16:02:10,102.4928710890563,121.32676536211758,114.4219322970686,127.73095809232669,233.9077279170009
2024-05-26 16:02:10,106.27017933364156,119.55323894277433,113.46516367227079,130.34383554681776,234.2646239641163
2024-05-26 16:02:10,109.33971406266058,117.20416465601386,113.24514835705696,131.39886775597026,234.65164970043736
2024-05-26 16:02:10,114.0847287920395,115.45570639497117,113.6281743168931,130.85330148583964,234.826637686289
2024-05-26 16:02:10,121.90258662912963,114.80295100473303,113.90967275063042,129.4437870431907,234.6598371139412
2024-05-26 16:02:10,132.7071105172077,115.25414547552862,113.5958957233708,128.31559063726627,234.4904246350448
2024-05-26 16:02:10,143.5180816418737,117.09602266667218,112.70296487201253,128.0716402689394,234.3261066102968
2024-05-26 16:02:10,150.83718904322274,119.70278446791623,111.30601633992914,128.3769651736731,233.68276735228048
2024-05-26 16:02:10,153.4250435651621,120.28709157728306,110.5829701159898,128.16988790127795,232.94030777160606
2024-05-26 16:02:10,152.5513763290011,117.06268110458271,111.74212939536504,127.14548735788247,233.10015839446325
2024-05-26 16:02:10,150.8817432029134,111.8458142392691,113.97387789216837,125.87284950422723,233.67882450692295
2024-05-26 16:02:10,150.31525954213726,107.94362643354893,116.6046100376925,124.71257332589593,234.08488798820682
2024-05-26 16:02:10,150.6677279826742,106.78008961521087,119.83685019865898,123.82510959287208,234.3457413591786
2024-05-26 16:02:10,149.72672414228202,107.46413281145843,122.84212514655584,123.254897271759,234.51580525105825
2024-05-26 16:02:10,145.78503126784682,108.81021335795259,124.13310831372301,122.99398709289825,234.53465391278908
2024-05-26 16:02:10,139.47664068011377,110.56985956019875,123.70366013510349,123.05322751531101,234.35210895323124
2024-05-26 16:02:10,133.01735567444968,112.6532845585415,123.32152984409421,123.40349834665793,234.30522351085375
2024-05-26 16:02:10,128.84122427251006,113.6516849138768,124.10622028224333,124.0501265958068,234.11425330702957
2024-05-26 16:02:10,126.89623759349458,112.56754245870418,125.67343886502617,124.74774443175588,233.8134058090101
2024-05-26 16:02:10,124.56080667587418,110.25148136942379,127.05670110310861,125.08936943730565,233.99618774476585
2024-05-26 16:02:10,120.03934434204119,107.12456680808603,127.41677306072981,125.12221056767757,234.20899815362182
2024-05-26 16:02:10,113.13270476108464,103.25016238064595,126.36128882593223,124.84693290740798,234.14030667295478
2024-05-26 16:02:10,104.18603543537698,99.24303598674715,123.87347778195299,123.78745798772385,234.32617135888697
2024-05-26 16:02:10,94.11767095139606,95.50294107538848,120.92152515531579,121.59456986665484,234.6294520648089
2024-05-26 16:02:10,83.93771545475934,92.59020282163664,118.73778974734172,118.72344470551516,234.45702059793803
2024-05-26 16:02:10,73.76326202757586,90.35942661384352,116.9878527392064,115.6715634167246,234.03196098467487
2024-05-26 16:02:10,63.190985405427185,86.84454259034565,114.42355368674984,111.14507770539811,234.00794275474368
2024-05-26 16:02:10,53.25478956512919,85.3883094247227,110.75422713958154,109.02790581901903,234.72208062362665
2024-05-26 16:02:10,47.390257837782315,100.60988283975003,106.84412742375373,127.06336014195858,235.43276684798377
2024-05-26 16:02:10,49.395057462843695,139.33891780437446,103.91862834388745,167.83632000571504,235.30154312168486
2024-05-26 16:02:10,60.464744191785464,184.20442973413907,103.0324665107277,205.71680925467933,234.84265893348942
2024-05-26 16:02:10,78.35831473675363,216.68203853694348,104.64147446295891,227.79177509467343,234.4807304169824
2024-05-26 16:02:10,98.59178955199864,234.83042946672106,107.67572982089904,238.29810681191032,234.206053224838
2024-05-26 16:02:10,116.35725430442233,241.1223881923437,109.94205478356788,239.42237986947436,234.05978499190306
2024-05-26 16:02:10,128.95173662836328,238.0931363450162,110.99327042757288,235.0295392450418,233.97436101006735
2024-05-26 16:02:10,135.8838534397806,225.972660992358,111.87477154688195,231.76825716443065,234.07708821538208
2024-05-26 16:02:10,137.12698934210687,196.37797794711827,112.605479614355,233.31425462986613,234.43860053148393
2024-05-26 16:02:10,133.67329191296088,146.8169587841905,112.86200727928495,234.75975861102714,234.66501177200607
2024-05-26 16:02:10,127.96197152881446,92.01750379039358,112.4215315085593,219.809514008704,234.50887706464502
2024-05-26 16:02:10,120.33852848313676,50.28071660507262,110.9772351015671,176.2313251275377,234.37695386879622
2024-05-26 16:02:10,109.56200234786712,30.720590257320396,109.38049018504942,120.12393411190533,234.40506613074112
2024-05-26 16:02:10,97.92130493367715,32.65538960175449,108.92490932836922,79.23502007187405,234.2887150704082
2024-05-26 16:02:10,89.99021922207874,47.50104700709107,109.79821944233422,60.790460399014805,234.12518760622842
2024-05-26 16:02:10,88.33374139267444,62.286651776309284,111.33253428305309,57.06452095277503,234.2052852776114
2024-05-26 16:02:10,91.79092219498328,68.54451994053758,112.89942631330565,61.17406472604224,234.5001835225569
2024-05-26 16:02:10,97.03584334346803,68.34517170307058,114.34907024556641,68.14089314254323,234.62446534400908
2024-05-26 16:02:10,101.56496082821654,69.56221479235913,115.25011422783385,73.17796462909308,234.43507252317488
2024-05-26 16:02:10,104.04852796917612,75.76905825440426,115.2195897667634,73.81894396516243,234.36660925883632
2024-05-26 16:02:10,103.69242035925465,82.47690126195577,114.6914255995457,72.13669019350493,234.58764616256917
2024-05-26 16:02:10,101.06860605127538,84.83060098527685,113.7476882829067,72.26545071114954,234.65525674474142
2024-05-26 16:02:10,98.29323474760217,84.1846708317526,112.05622407040983,75.64153452218395,234.4100552145628
2024-05-26 16:02:10,97.29622538175376,85.00628748244367,110.4524422702612,79.35452466329484,234.32711234203626
2024-05-26 16:02:10,98.02576615387174,88.7830984446064,110.02463640886477,80.29818479418768,234.45666222633355
2024-05-26 16:02:10,99.17721531342889,92.51633455833422,110.39647770808212,79.34215431847609,234.3587568539553
2024-05-26 16:02:10,101.16675622487776,92.80819533064735,110.64055201698548,79.2207050756804,234.11902767684663
2024-05-26 16:02:10,105.9001231787573,90.02517382415364,110.40977651257052,80.95857162560347,234.01356845002906
2024-05-26 16:02:10,113.35546353805196,87.49198575372208,110.02029039878747,83.18582856566822,234.0156961682157
2024-05-26 16:02:10,120.98041971766867,86.86375068474992,110.29120878999507,83.77479046547441,233.14360986376295
2024-05-26 16:02:10,126.02943250391155,86.42949338924025,112.18199514340476,82.95605706545834,231.7222341172492
2024-05-26 16:02:10,127.93723107436088,84.31699190021662,114.75421341974601,83.0561904856205,231.79548812687662
2024-05-26 16:02:10,127.99467725408772,81.33277309714165,115.8006731748981,84.51585810688883,232.89434516151783
2024-05-26 16:02:10,127.21774569527938,80.59584345161191,115.64987976370044,85.73100976811591,233.71192859023512
2024-05-26 16:02:10,125.92216750694647,83.33377439754494,115.75565764251593,85.7531934572091,234.3307227204196
2024-05-26 16:02:10,123.47310154868273,86.52718450441975,115.92064808485159,85.23803200429808,234.7465483249284
2024-05-26 16:02:10,118.79967487411017,87.47382736922611,116.27311844353036,85.48049142429913,234.6248553898808
2024-05-26 16:02:10,112.0991044410447,87.42310785931875,118.30808714972244,86.71729342496567,234.13141250166385
2024-05-26 16:02:10,104.50809257872248,89.42786543987792,122.26644295005707,87.98900751329941,233.84062503108396
2024-05-26 16:02:10,97.23715357625036,93.7651613395218,125.70095150033977,88.28346290205377,233.28971994672824
2024-05-26 16:02:10,91.43273630149156,97.33769075204859,126.77944435886066,87.7287956828172,232.49649043384568
2024-05-26 16:02:10,88.02890447287,97.79948729445024,126.09826846851308,87.46547162914206,232.58609658146406
2024-05-26 16:02:10,86.77016891033938,96.01082057584226,123.74023342431241,87.79280127280092,233.22745318852128
2024-05-26 16:02:10,86.93877550057962,94.69295151404918,119.28795713900195,87.71552930877935,233.7321759104946
2024-05-26 16:02:10,89.33157833779478,94.82453276854743,114.01604415841865,86.55109156691617,234.1604738103816
2024-05-26 16:02:10,95.02357044172574,94.76234109669628,109.97454705216515,84.77840465283631,234.44322931414297
2024-05-26 16:02:10,103.74089050949394,93.2431069713868,108.25314897412588,83.35956223394585,234.36946500207296
2024-05-26 16:02:10,113.26064437179285,91.18780772729271,109.48505144543012,82.5606346377701,234.08927447707632
2024-05-26 16:02:10,120.86682264353391,90.25071954067351,113.61116097687766,82.15197575864606,234.02533505334807
2024-05-26 16:02:10,125.30038520547072,89.96331072972102,118.19663827530714,82.19553298997914,233.67188062424532
2024-05-26 16:02:10,126.96282797525569,88.82331140516072,120.61080635596554,82.58970178996657,233.0540181561173
2024-05-26 16:02:10,128.27010347606105,87.34182729850667,121.80003485573755,82.88829668419494,233.06730997405742
2024-05-26 16:02:10,131.6994168584229,86.78938465072073,123.61296643218805,83.13978767339941,233.29232855844114
2024-05-26 16:02:10,137.15855657990232,88.34018504544107,124.30467611979252,83.78522462528538,233.39200362892942
2024-05-26 16:02:10,143.5716134488215,92.68709154256528,121.67104238937551,84.53742765117366,233.79488124027264
2024-05-26 16:02:10,151.13973189896353,98.53539502053704,116.9209831593511,85.21765885910624,234.28059366246475
2024-05-26 16:02:10,159.75119119661113,104.00251176072113,112.4973721728309,86.65771196027731,234.3335282549605
2024-05-26 16:02:10,168.03721386916345,108.14170905568281,110.1646313409672,89.328497249091,233.96121966246355
2024-05-26 16:02:10,175.18699785749976,110.94967007991899,110.97891762293588,92.67385282067937,233.69410868903958
2024-05-26 16:02:10,180.53840143786613,113.17398310623571,115.16155904369656,96.01820103514547,234.1129267753846
2024-05-26 16:02:10,181.81942491496463,115.47567302922015,121.59361666951187,99.11625513233298,234.96724583923222
2024-05-26 16:02:10,175.43817544891093,117.11495438001018,127.50259277025332,101.73566781605462,235.18117380708193
2024-05-26 16:02:10,159.90225809060976,116.64158868511217,130.16284411029864,103.72407928302496,234.75167915470712
2024-05-26 16:02:10,137.73192156208097,114.34215429732323,129.63005291085634,105.52660173450035,234.45307284952605
2024-05-26 16:02:10,114.21055253934055,111.67678962598211,128.1751076770254,107.17100017389001,234.33527253657482
2024-05-26 16:02:10,95.39999512706059,109.6954998522201,127.13614986746256,108.11149261932013,234.3864540715311
2024-05-26 16:02:10,84.83965081475958,109.14921428383262,126.66551282142619,108.64120045371277,234.6074373562838
2024-05-26 16:02:10,83.36297639303619,110.50671623367732,126.74748872501934,109.37476788239648,234.61128207201907
2024-05-26 16:02:10,89.69552197242447,113.50190929784496,127.13800108834333,110.09264975355705,234.48202796022576
2024-05-26 16:02:10,99.63821749207042,117.12039604463627,127.88785320247814,110.45678660200295,234.65910989549045
2024-05-26 16:02:10,108.11118532916325,120.30332262292556,129.89102209886963,110.95266076457456,234.820357212491
2024-05-26 16:02:10,113.34191371805485,122.35787993094775,133.12080510681423,111.88861510589888,234.68384609112326
2024-05-26 16:02:10,117.13017575097626,123.0703876663933,135.61677203985053,112.87944363684878,234.6291308361348
2024-05-26 16:02:10,121.01403213116664,122.62179920413001,135.43605159186063,113.48342080775298,234.628368728131
2024-05-26 16:02:10,124.52456006085212,121.47733612499333,131.24679698340353,113.44823646695218,234.5949855198759
2024-05-26 16:02:10,126.2641555266848,120.13116004062877,123.55140141613255,113.08282696448627,234.7439354084306
2024-05-26 16:02:10,125.93487821421672,118.93731797316104,116.44207072972335,112.94182235533005,234.77230550337987
2024-05-26 16:02:10,123.69844883620647,117.99805398227251,113.51004053600929,113.15950556878158,234.4510549611096
2024-05-26 16:02:10,119.07683874337113,117.52673156202336,114.21929095014714,113.41996859710467,234.28097851647738
2024-05-26 16:02:10,113.00105646694338,117.91330686535227,115.89765250122296,113.3591473490072,234.39706282294605
2024-05-26 16:02:10,108.39773662250678,118.56495247078975,116.58278271830105,112.97234285030478,234.36170436201093
2024-05-26 16:02:10,107.468092730925,118.2279113931269,116.2067425387711,112.55451179991239,234.29698642459212
2024-05-26 16:02:10,109.68351527182571,116.6594117513503,115.75030099423891,112.40412144439212,234.36579534607853
2024-05-26 16:02:10,112.7130650252982,114.28096707739279,115.67000695494531,112.42499736524806,234.2963439318773
2024-05-26 16:02:10,114.67730366052699,110.72830725683889,115.56643026526271,112.29142462170454,234.28460954765373
2024-05-26 16:02:10,115.34890911363728,106.90285092630626,115.45291129540267,112.08185852966392,234.42015557638047
2024-05-26 16:02:10,115.29870051483013,105.88285104107405,116.06654548305264,112.17684447841135,234.34159964048848
2024-05-26 16:02:10,115.08674449548127,108.76068133273967,117.95268002083577,112.77780927116633,234.26408154750823
2024-05-26 16:02:10,115.0011651006593,113.69136602314569,121.30406653067037,113.67812084721133,234.36856680844514
2024-05-26 16:02:10,113.9539020439897,118.60304383949477,125.87600069985103,114.42376282373037,234.3296849697489
2024-05-26 16:02:10,110.26648497181876,121.8409928719473,130.50970950048406,114.84572092426262,234.30258723832293
2024-05-26 16:02:10,103.73603366730264,122.0062300444422,133.35076628767405,115.10152755815535,234.40143294054354
2024-05-26 16:02:10,96.05789429773507,118.74340260111282,132.93074795124997,115.27794932207038,234.31483830345573
2024-05-26 16:02:10,90.31552803537818,113.54252415574041,130.06380736393996,115.45463248072367,234.1388523703202
2024-05-26 16:02:10,88.2988134397419,108.78215099222902,127.83316890524006,115.6697736057678,233.8146931174641
2024-05-26 16:02:10,89.34522589685156,106.77762754855257,127.83646673060629,115.74707090379583,233.38028578650375
2024-05-26 16:02:10,92.41561935774915,108.71204465530711,129.05277780954654,115.50145202940544,233.49352882049632
2024-05-26 16:02:10,96.15692117872199,112.96369248863097,130.3719322335818,115.17446953592346,233.94645347786314
2024-05-26 16:02:10,98.87681462481544,117.52682882593955,131.5318700928437,115.07815577116156,234.2446055759971
2024-05-26 16:02:10,100.21642551031934,121.57496478332433,131.92145412886646,115.01861904454947,234.35361619103435
2024-05-26 16:02:10,101.79859455380401,124.44018964586607,130.11360951616854,114.847784999667,234.1662843685615
2024-05-26 16:02:10,104.79892535270953,125.59139681308116,126.3806029641494,114.66119015464237,233.94653734931558
2024-05-26 16:02:10,107.94577021776642,124.31608926354953,122.5891192322147,114.41025048089753,233.84680007389056
2024-05-26 16:02:10,109.96100396546115,121.11748576808135,119.9273216334034,113.82418544465193,233.9481210659824
2024-05-26 16:02:10,111.85731263800545,117.48604000691857,119.33002039400517,112.69705058570656,233.7647474710867
2024-05-26 16:02:10,114.83831645256254,114.86867225975396,120.3228129410191,111.9321668339205,233.09907906993033
2024-05-26 16:02:10,118.00215577267186,114.65018456095797,120.91136259724297,112.95851704957707,233.02394337275217
2024-05-26 16:02:10,120.07575369269966,117.00941887162838,120.37151353926546,115.33796937795469,233.37308590046598
2024-05-26 16:02:10,121.00227017620563,121.57095508314757,119.37366177075795,117.58918128058241,233.56547326512532
2024-05-26 16:02:10,121.37499076743109,126.75966948991035,118.51924021555773,119.04198536061074,233.9826993486225
2024-05-26 16:02:10,121.82218506891792,130.1242511241848,118.49320038491204,119.50753094563656,234.49535976641093
2024-05-26 16:02:10,122.06590230815229,131.07404392442834,119.56937730021399,118.92074221143086,234.52462918880767
2024-05-26 16:02:10,120.80528957534644,130.071182884794,121.08031101283731,117.41811767079129,234.16065491764869
2024-05-26 16:02:10,117.28602899460164,127.7090338039726,122.83755324251202,115.59304306274576,233.90360461355164
2024-05-26 16:02:10,111.96414617868285,125.29827081498993,124.54064709252788,114.06641233061058,233.6734923677631
2024-05-26 16:02:10,106.74538899023041,124.72908673077214,125.35947821868064,113.05454178611825,233.5505735361029
2024-05-26 16:02:10,104.30236286733602,126.74528669269421,125.20457924179652,112.62035977140867,233.81484416660447
2024-05-26 16:02:10,105.61861106485136,129.8474353001861,124.14645945033907,112.64685755952364,234.0848944489685
2024-05-26 16:02:10,109.91498957202276,133.04432200457254,121.95606808594613,112.97666371732788,234.3418675423181
2024-05-26 16:02:10,115.52071104956497,136.37218600197835,118.0460206016771,113.64288659064064,234.7584794496711
2024-05-26 16:02:10,120.55797232542204,138.9861645614049,112.98245975878103,114.47345506459645,235.08342601469298
2024-05-26 16:02:10,124.22386836692536,139.8000284048402,109.9608898229698,115.26897983759329,235.01806163207786
2024-05-26 16:02:10,126.20109653857897,138.40367734999478,110.69648120273959,116.19917437016557,234.54120111983278
2024-05-26 16:02:10,126.78050946973661,135.84814017052315,112.97296126327583,117.54298965128497,234.11333885432344
2024-05-26 16:02:10,127.44328006297567,133.2964150305637,114.95882824429528,119.18725556944977,234.38380890439277
2024-05-26 16:02:10,128.5637201241474,130.02579556134356,116.65429455556001,120.37470306240458,235.03020062856172
2024-05-26 16:02:10,128.1384573778649,124.98441624967923,116.93276502241196,120.83168723271856,234.9876771709434
2024-05-26 16:02:10,124.27236402285132,118.65234382476255,114.2701719888563,121.14753114508186,234.4981810263512
2024-05-26 16:02:10,117.42066734741987,112.90559249074467,109.58541254832157,121.67079001103892,234.19951873024448
2024-05-26 16:02:10,109.36225274601753,109.40465151905714,105.22659674597438,122.02268636157957,234.03081591551228
2024-05-26 16:02:10,101.29193013844124,108.61645053906092,102.26954781987033,121.03626403375083,234.06608569713632
2024-05-26 16:02:10,93.67606486384739,109.85708109520559,100.49817493814788,117.90711879411491,234.26929632853432
2024-05-26 16:02:10,87.05713181698782,111.51454402191452,99.9743285594277,113.76773458338846,234.3196136812788
2024-05-26 16:02:10,81.55457835178328,111.22201491507437,101.4851007560004,109.26002738834755,234.2196456308178
2024-05-26 16:02:10,76.49442935202117,107.90666987964593,105.07000734212976,104.32620692529544,234.48397075855928
2024-05-26 16:02:10,72.77339014525367,110.39244759223143,109.0487806920626,108.28301495206154,235.08963579185024
2024-05-26 16:02:10,75.70437624984743,134.2300372189346,113.3774961362304,135.92485544174647,235.06523999043287
2024-05-26 16:02:10,85.82246679937637,174.65716646771864,117.59645798915903,178.8864607900398,234.47947685755295
2024-05-26 16:02:10,94.24537800559243,209.6482028451047,117.50382338446249,212.47433281336572,234.17076545016505
2024-05-26 16:02:10,97.27798100298006,231.07942835458473,112.43273161829133,230.38759580623818,234.0154447127329
2024-05-26 16:02:10,98.05582372166401,240.74124397187327,105.85168100384155,238.22836018240685,233.81303228358763
2024-05-26 16:02:10,98.35876008424599,229.54025846028622,99.97415537689557,238.1495170285255,233.9230804983223
2024-05-26 16:02:10,98.65967930453672,187.2008882312645,96.53594980186068,233.82042968726694,234.45569333675738
2024-05-26 16:02:10,99.0216508623804,128.6116275181219,96.92267567449642,221.76090203659086,234.80411243471127
2024-05-26 16:02:10,99.20001042746217,80.80253286098444,100.5310302313307,188.82222917373187,234.57611955856783
2024-05-26 16:02:10,99.21868700752113,53.66988358816746,105.52508334138608,137.44917843179857,234.16920618061005
2024-05-26 16:02:10,99.60052548683595,43.698311392909574,109.90757152787995,88.23583006043529,234.09970086330094
2024-05-26 16:02:10,101.52792620322079,47.19648764195995,112.29267909865851,57.05113678098325,234.18786824337664
2024-05-26 16:02:10,107.37132149426485,61.59077499301678,113.31529390031444,46.82615243545909,234.03707549452915
2024-05-26 16:02:10,118.03476924280142,79.27778609181587,114.79884203059865,52.10432538737424,233.90029160917837
2024-05-26 16:02:10,130.08110010296,88.79240905116465,116.9881673844093,62.81099500227414,233.8861799953158
2024-05-26 16:02:10,138.60694445247594,86.66222942297198,118.0494081199297,68.56792617100717,234.00050093836236
2024-05-26 16:02:10,141.89901323065908,80.11654963253119,116.86483432790853,66.48209390868794,234.3915212792649
2024-05-26 16:02:10,142.70340688343992,77.23359492229525,114.79418088056171,62.61338379345048,234.6812194701953
2024-05-26 16:02:10,144.26147384100736,78.83872051207686,113.8565774543081,63.571705591771405,234.55745432416012
2024-05-26 16:02:10,145.7494108865432,79.04751358362294,113.84177167162953,68.89423490293552,234.39317062163693
2024-05-26 16:02:10,144.55582208573458,75.3985334220637,112.98822748166361,72.87548961240944,234.37343330248214
2024-05-26 16:02:10,139.97835225195374,73.54065049696608,111.25617629361676,72.47175472336774,234.25676642373577
2024-05-26 16:02:10,133.2048082198005,78.05631202201644,110.38468075928152,70.81084773488162,234.13468401627043
2024-05-26 16:02:10,125.6651260112485,85.56934458794098,111.42105552151699,72.02623522490937,234.1128476263527
2024-05-26 16:02:10,117.17863430041467,89.81223115959412,113.4276609499311,75.53777957754585,234.05953399068224
2024-05-26 16:02:10,107.56599959791059,89.55142055925232,114.27144661634449,77.3663224609577,233.9643568245365
2024-05-26 16:02:10,99.12467841394438,88.18069543181548,113.03750684784482,75.50092938113501,233.2967645836402
2024-05-26 16:02:10,94.07348577656269,87.55360194004047,110.53707779929208,72.71493727868142,232.35648590727533
2024-05-26 16:02:10,91.92213346831262,85.87717441102828,108.16769739975463,72.78447598765295,232.49671936576559
2024-05-26 16:02:10,90.83989482738997,80.98955802765383,107.29638948352572,75.17821722312965,233.3032620673148
2024-05-26 16:02:10,89.53909346460217,74.72735730342413,108.09742641383365,76.79807899508266,233.8580159055739
2024-05-26 16:02:10,86.80568769637435,72.61582713049265,109.0404771614373,76.26960598030422,234.1679691915857
2024-05-26 16:02:10,81.82842848820988,77.7997011650669,108.47524272541253,75.19294440877765,234.3369024640118
2024-05-26 16:02:10,75.70325439047843,87.28456480947837,106.35576242610365,75.91229727748178,234.30101246187436
2024-05-26 16:02:10,69.19178319365997,94.70355332630209,103.75620141853315,78.00393064967217,234.14315961008322
2024-05-26 16:02:10,61.89878688956436,96.85090963517959,102.23592454245744,79.0053656992369,234.24311151460452
2024-05-26 16:02:10,54.77482492226352,95.51688293489032,102.48928958381539,77.81289052953797,234.129491181945
2024-05-26 16:02:10,49.962216919541916,94.02178559067879,103.74644188760223,75.85441547660639,233.7395933693794
2024-05-26 16:02:10,48.627063919525945,94.70420075249655,105.143728267612,75.0448793631766,233.95334026205282
2024-05-26 16:02:10,50.15432136344714,97.24020129485261,106.13157351280077,75.5277560311699,234.23068093593895
2024-05-26 16:02:10,53.37245728142628,100.70990532441047,107.30252883752225,76.11900670592566,234.051029079247
2024-05-26 16:02:10,56.91431551225656,104.7901418687178,109.73984466122886,76.10020215425172,234.0454359170028
2024-05-26 16:02:10,59.28619393574235,108.48274559672137,113.48085525111092,76.02532113816173,234.26249569155982
2024-05-26 16:02:10,60.45955099345668,111.27528755315592,117.16078108471021,77.01702230309124,234.37865805920947
2024-05-26 16:02:10,61.37624827151364,112.84685715295863,118.57319489888866,79.05393657796675,234.2841255543643
2024-05-26 16:02:10,63.33385586162657,112.55195807816891,117.12614487768376,80.74772698822323,234.06925464172303
2024-05-26 16:02:10,67.99225406609717,110.50962853364611,114.74438897691294,81.29248466851116,234.3177220455567
2024-05-26 16:02:10,75.01784403765427,107.7451969754295,112.88820919900328,81.426143170635,234.888285111799
2024-05-26 16:02:10,82.33275943158587,105.39725687980007,110.99259142608761,82.32133959701241,234.82042186089183
2024-05-26 16:02:10,88.85757325883613,104.50261617935621,108.6466933805953,84.15863003951063,234.28532593955222
2024-05-26 16:02:10,95.82604505894874,106.04154098751636,107.01590326084178,86.22962112645818,234.0964015361381
2024-05-26 16:02:10,104.7724848997315,110.16347702133629,107.19069048212825,87.98718865717208,234.41781937405915
2024-05-26 16:02:10,114.3745723920245,115.75560689472212,108.60879554198794,89.47746323713791,234.70674927108917
2024-05-26 16:02:10,122.30624534350892,120.9682969940543,110.54127843657959,91.52385830228324,234.55772733890666
2024-05-26 16:02:10,127.82124942169227,124.27304992821756,112.65732094599502,94.76963477593964,234.23531181217763
2024-05-26 16:02:10,131.85041192914605,126.16937910081444,114.26617740771623,98.25794197277801,234.02188366614672
2024-05-26 16:02:10,136.84223659317934,128.16380931027226,114.67361033449909,100.96348476557282,233.82944243183556
2024-05-26 16:02:10,144.73164083056972,131.0038170176324,113.47386909366136,103.15522494884615,233.78982713766936
2024-05-26 16:02:10,154.9412123225112,134.39472342083423,111.76453881321771,105.47638464648061,234.17171344328816
2024-05-26 16:02:10,164.57823818384173,136.21863842499786,111.26433006761658,108.10274168770738,234.6107123826803
2024-05-26 16:02:10,170.26660745687903,135.19366232007053,111.92082987547029,110.46121489865817,234.82791753903098
2024-05-26 16:02:10,171.35483797785287,132.2383618332004,113.15212535908424,112.26124400330157,234.84990183402297
2024-05-26 16:02:10,170.24535986356258,128.70115140492038,115.13122041593797,113.86350532182026,234.6255355757346
2024-05-26 16:02:10,169.24722468740464,125.87167642124022,117.71577875447399,115.50718478002099,234.43331160250563
2024-05-26 16:02:10,169.4342723419778,124.16296027480924,120.20829346905924,117.07333980365377,234.37407501891664
2024-05-26 16:02:10,170.5172458185345,123.30608496989979,121.6668019973203,117.98290718599982,234.22167874107942
2024-05-26 16:02:10,171.77029481141264,123.18584017148206,121.0270258873141,117.82803564126098,234.23400239699635
2024-05-26 16:02:10,173.72363341672352,124.2106861999003,118.92330367391658,117.16113606661298,234.45030184774612
2024-05-26 16:02:10,176.44245945246413,125.8873287773447,117.25166407853484,116.92258887489278,234.52598161810323
2024-05-26 16:02:10,179.10599633140407,126.14507006392527,116.9760055685842,117.22999564504276,234.46952721231295
2024-05-26 16:02:10,181.01923191423487,124.27630641983416,118.06684910153392,117.6072236018481,234.30580291424428
2024-05-26 16:02:10,179.64025222833465,121.00484460315829,119.0413934252378,117.93725548221806,234.15846319506187
2024-05-26 16:02:10,172.0613261744613,117.15663942854646,118.56679717859843,118.37193106260489,234.11583713864218
2024-05-26 16:02:10,159.17055872090597,114.40335888117386,117.0896502931574,119.10532685942874,234.04794235018667
2024-05-26 16:02:10,145.3930643595403,114.58888274953881,114.80315081963073,120.07113406690138,233.95467736433312
2024-05-26 16:02:10,135.6088729850006,117.85505088568786,111.96171119401959,120.99010594795054,233.93060871844506
2024-05-26 16:02:10,132.0820535320581,121.56777896415323,110.3881664505967,121.86681395622894,233.99464101277886
2024-05-26 16:02:10,134.14531177131772,122.98486021527223,111.1976638370405,122.70923435268395,234.18123004820305
2024-05-26 16:02:10,140.16321136480735,122.39806537512459,112.88019218745504,123.21887377949105,234.3614177673386
2024-05-26 16:02:10,148.53030899902348,121.50239424483075,113.79510081164402,123.22328855694917,234.28316901820492
2024-05-26 16:02:10,157.1815859884893,121.5023927979183,114.2527206565425,122.94387961378321,234.2515292867873
2024-05-26 16:02:10,163.83773992838715,122.40876679588968,114.90998884214797,122.6552183642911,234.15965669679795
2024-05-26 16:02:10,166.8932615430874,122.53277820886694,116.51675606713701,122.49451962734543,233.71870292531804
2024-05-26 16:02:10,166.12550017514576,120.82261268087323,119.13595815518997,122.52649729847096,233.5421152648346
2024-05-26 16:02:10,163.29220465745885,118.66132551774304,120.86166460234497,122.78150181916632,233.6878791326279
2024-05-26 16:02:10,160.34190195727922,117.55724276869876,120.5255881063809,123.13616561300238,233.81187164709078
2024-05-26 16:02:10,157.29186138145306,117.13706028742652,118.801941672594,123.11057365980908,234.08353815394904
2024-05-26 16:02:11,153.1465459457511,116.99750977056904,117.18883756922057,122.55658948980131,234.40152763511395
2024-05-26 16:02:11,147.73793135532844,117.57457314880729,117.01728882130637,122.17750897871397,234.38475771119795
2024-05-26 16:02:11,141.10490256253203,118.60541212779194,118.32173984040836,122.5207429902659,234.15421660773276
2024-05-26 16:02:11,132.64807398793596,119.5355472850145,120.16764952331042,123.28775026851872,234.01776780110737
2024-05-26 16:02:11,121.77888872231586,120.49966386371008,120.91411575745532,123.82309610031163,233.4911679641305
2024-05-26 16:02:11,109.17323205002145,122.47775509118792,119.11712064215111,123.70139447026011,232.71255782101733
2024-05-26 16:02:11,97.76585011588696,125.60284614801846,115.4630692609268,122.92953784234355,232.89611542871828
2024-05-26 16:02:11,90.27268921156485,128.16692456634223,112.83375430524536,121.87850815739448,233.62417008931502
2024-05-26 16:02:11,86.88387778862483,129.26290670416392,113.66238174331681,121.0808763982208,233.93340940664083
2024-05-26 16:02:11,86.93612699977356,130.00494346638092,117.02252779382242,120.75720176346087,234.09346183775264
2024-05-26 16:02:11,89.10616977412145,131.25806261957365,119.62367203038683,120.70451269737559,234.2434053869188
2024-05-26 16:02:11,91.39850376048082,132.0606277180792,119.74463807383086,120.80788221123318,234.17074437337178
2024-05-26 16:02:11,93.25597352110734,131.5544956901396,118.2250295327015,120.99821208775955,233.93354093285944
2024-05-26 16:02:11,95.15901982385611,130.22087428279053,116.4583892750333,121.1228782727313,233.82373687245564
2024-05-26 16:02:11,97.48934944917795,128.17502782949362,115.53205226704385,121.19439120428619,233.70425982817264
2024-05-26 16:02:11,100.90669096795999,125.32211119801696,116.7874946929678,121.24981190741194,233.47693587808936
2024-05-26 16:02:11,105.78103894580669,123.12724010694834,120.1636871795774,121.72601549283439,233.4894575480852
2024-05-26 16:02:11,111.17005502820568,123.02849824721598,123.36128748460614,123.36541727446757,233.60515938307867
2024-05-26 16:02:11,115.33670012007674,125.06759898614334,124.44372896808004,125.83592307665488,233.69468927136717
2024-05-26 16:02:11,117.27158900558815,128.48730257320676,123.48604476143139,128.00441036186822,233.8057595590123
2024-05-26 16:02:11,117.48410494083149,132.05516826110963,121.48768769843424,128.96465089088747,233.8377388208369
2024-05-26 16:02:11,117.74684858401334,134.61503969525333,119.2643695954987,128.41690453582777,233.8400396162627
2024-05-26 16:02:11,119.59060692190413,134.7518901961432,118.1660408078225,126.78464574881527,233.778570571091
2024-05-26 16:02:11,122.53443200833088,132.41467018370946,118.45320854832899,124.74360811562475,233.754876340838
2024-05-26 16:02:11,125.02111316654573,129.31195854686936,118.8500005252839,123.11431267720288,233.93550393492168
2024-05-26 16:02:11,125.96911589422359,126.28581997961163,119.06527007958418,122.25963873102532,234.14602842742022
2024-05-26 16:02:11,124.48990932920728,123.3900722117508,119.71466129137188,121.91183320469565,234.13979870546447
2024-05-26 16:02:11,120.974460588545,121.11129071549736,120.89973335587797,122.050337744233,234.08250796195472
2024-05-26 16:02:11,117.63338764489491,120.57191583809615,122.2319104991001,122.45981033816048,234.1797818661788
2024-05-26 16:02:11,115.72639520336746,121.9803422394323,123.4011180043175,122.53458860180754,234.39197724839875
2024-05-26 16:02:11,114.52726470061288,124.36918416117221,123.78305669013956,122.05060350500726,234.60137878298326
2024-05-26 16:02:11,114.05246657905906,126.72924676347024,122.80034605309625,121.06531061494964,234.4999473471753
2024-05-26 16:02:11,115.78224420723689,127.82157197483947,120.75851274286306,119.92375812883354,234.28528191510767
2024-05-26 16:02:11,120.25649892352291,127.55965042240595,118.6689053387772,119.14821116076541,234.27339982556066
2024-05-26 16:02:11,127.15622931122068,126.76034638527673,117.58976472067211,118.73543341880088,234.64010820659882
2024-05-26 16:02:11,135.63886459498727,125.97864176440967,117.95259600994521,118.39044647108254,235.32288337348803
2024-05-26 16:02:11,142.8092892712959,125.74424669654626,119.62113698864059,118.02316593575303,235.41829124123453
2024-05-26 16:02:11,145.9405611136838,125.15821314299774,122.08167704264582,117.93050725563823,234.84375126079632
2024-05-26 16:02:11,145.62959406524288,122.8326556775031,124.01004072923418,118.07302755280733,234.33824913563376
2024-05-26 16:02:11,144.43778627148325,119.47550117142764,124.44093803473868,118.06807506477213,234.07460186974984
2024-05-26 16:02:11,144.59598550585605,116.91481319495783,123.94278439818468,117.8912001499827,233.95958950004564
2024-05-26 16:02:11,147.07411540442897,116.00745688254793,123.42144832064372,116.83965921876981,234.07304700895384
2024-05-26 16:02:11,151.2340069472137,116.40312061562848,123.50152567698983,114.40028072653101,234.31958551998173
2024-05-26 16:02:11,156.04140609004125,117.53610624705152,125.04402862791699,111.88375091302308,234.46818369703283
2024-05-26 16:02:11,161.53559646377036,118.24309908044474,128.53417738293845,110.0156359287205,234.51623324622653
2024-05-26 16:02:11,167.76846505519254,117.6258277193674,132.51969782831753,108.00710504938245,234.5076242709764
2024-05-26 16:02:11,173.79157495355315,121.64987131001648,134.10345578610304,112.33662905668191,234.49093766933464
2024-05-26 16:02:11,178.69793099326915,144.0092887521022,132.12752089121142,137.6081565506154,234.3670256891563
2024-05-26 16:02:11,181.90504748549523,182.2272643251663,128.52914169451668,178.51451691051065,234.18135269963378
2024-05-26 16:02:11,183.46659402119906,214.63690687624313,125.95176201296891,211.13163757177583,234.07392891188533
2024-05-26 16:02:11,184.25150513789538,232.54907460543274,125.33484991226995,229.40285549719044,234.00166839991545
2024-05-26 16:02:11,184.55507527821823,239.74032556888397,125.73829102306311,238.85149967108677,233.9638424775355
2024-05-26 16:02:11,183.5058010937412,238.73505568120208,125.8298914194095,239.86678727089247,233.97645964629183
2024-05-26 16:02:11,179.93805666031136,230.78196475287493,125.31835213877969,235.16988792761393,234.01318730049664
2024-05-26 16:02:11,173.64238570915944,209.4897128175789,125.05485224935023,230.7388527274654,233.14261044800895
2024-05-26 16:02:11,165.68281415686064,168.6818847666912,124.87363659403114,230.86923814762434,231.72217893365803
2024-05-26 16:02:11,157.02558281358372,117.1903217078171,123.2209381544389,225.63137781739505,231.92642696245275
2024-05-26 16:02:11,147.43730601391894,70.10985050544656,120.43599087299219,193.80072619045018,233.09949402261336
2024-05-26 16:02:11,137.25481682567602,38.39881492083041,118.55124909149123,139.9455923603478,233.69745933069296
2024-05-26 16:02:11,128.3447987549486,27.735730754080095,118.45517112392967,93.3525914475699,234.06190991896733
2024-05-26 16:02:11,121.49541644306383,35.13456505832262,119.68668964414363,69.05869865570719,234.33413547760404
2024-05-26 16:02:11,115.75931173533216,49.3655435453935,121.39008357926272,63.0249129576724,234.24548566075353
2024-05-26 16:02:11,110.74097380217266,58.327024759871854,122.70519600497923,67.25194395433398,233.90876267143864
2024-05-26 16:02:11,107.1930815599612,59.05113168446044,123.40962676436425,74.98117587434025,233.8777418204802
2024-05-26 16:02:11,105.71236726361603,57.70016838893168,123.9155788950182,80.39830315536486,233.63474431250955
2024-05-26 16:02:11,106.04604060757877,60.439855446027174,124.63540264429463,81.01392326701182,232.86550829195042
2024-05-26 16:02:11,107.28251163325847,66.65225279865476,125.95073236373037,79.13580024509537,232.77554289551395
2024-05-26 16:02:11,107.98919081452847,70.7149490361798,127.71751731710296,78.29390315649756,233.15379081291047
2024-05-26 16:02:11,107.0803751029442,71.22263158184914,128.70861888317245,79.63460110676459,233.5184241498815
2024-05-26 16:02:11,105.43555781721508,73.19403545211193,127.4416083230445,81.38213553450106,234.0285668961896
2024-05-26 16:02:11,105.32245248864963,80.71311071427724,124.44544427931221,81.74409900748451,234.25841675732215
2024-05-26 16:02:11,107.6213736320326,91.62171033280995,122.88514224343697,81.43257524961338,234.15780938129862
2024-05-26 16:02:11,110.64047952459508,99.66266361335221,124.73034059555411,82.4120020598065,233.99052405464832
2024-05-26 16:02:11,111.89271330682904,102.33606034798608,128.00762593006323,85.05973107386126,234.1029424991383
2024-05-26 16:02:11,110.0372465268732,103.0156960123314,129.8350978739022,87.40468351446842,234.47246460143717
2024-05-26 16:02:11,105.08146059985148,104.91302150308064,129.92528527650788,88.02866108433909,234.66641333720975
2024-05-26 16:02:11,97.57527364482029,107.28600538580841,129.1498272079928,87.68283502590727,234.50726337557128
2024-05-26 16:02:11,88.91743199629401,107.90645313997706,127.60493524729984,87.68100521444826,234.21675728770245
2024-05-26 16:02:11,82.31017226067985,106.56512780444889,125.72103726596526,88.74224263680277,234.08513938350728
2024-05-26 16:02:11,79.86921300986691,104.79650081886473,124.2701124274396,90.12860099492939,234.1271980208934
2024-05-26 16:02:11,80.33835149302112,104.24265660067014,123.03345521576159,90.56781490692644,234.27650117595033
2024-05-26 16:02:11,82.0760496109844,105.12155857946264,120.91239519326277,90.46444030655337,234.30486567959022
2024-05-26 16:02:11,84.96171379360112,106.11237758259585,118.09369759898006,90.99760186699577,234.175134282852
2024-05-26 16:02:11,88.87864973529976,106.28986291355305,116.25436172612413,92.01614952636514,234.2432785873192
2024-05-26 16:02:11,92.41907126567202,105.6276247463395,116.32899612041666,92.48304613233721,234.72637399512828
2024-05-26 16:02:11,94.40101302667226,103.96380156374258,118.57937219040636,91.7699990157577,235.347214376067
2024-05-26 16:02:11,95.18110294242366,100.03171953835624,122.75487704286998,90.1692438560128,235.40087220397245
2024-05-26 16:02:11,94.21169033745468,92.4426522397855,126.69178347218886,88.66710119283884,234.6735431109193
2024-05-26 16:02:11,91.09894482588776,82.98794048976458,127.96308363629217,87.66267353098812,233.8614907219087
2024-05-26 16:02:11,88.53029052180824,76.69896415489676,126.93161061177511,86.70353846384859,233.75538006160156
2024-05-26 16:02:11,88.97491511846684,76.99588599476422,125.44617333672274,85.49186724506808,234.13644299259292
2024-05-26 16:02:11,92.44689513817536,82.50417702982209,124.2978190920635,84.40249864968553,234.42154503121884
2024-05-26 16:02:11,98.24246667458979,89.31066513850968,123.15507259977714,84.15175081087023,234.65357190944272
2024-05-26 16:02:11,105.54617596190778,94.60101420179284,121.12974241531448,84.90732225490993,234.71281750532484
2024-05-26 16:02:11,113.1686095596758,97.61111291582023,117.83183625826575,85.89689001895717,234.58901174576218
2024-05-26 16:02:11,120.02281005532242,99.10927041999895,114.15966372248919,86.30813630390988,234.54412896035933
2024-05-26 16:02:11,125.83188710139784,100.49390055938619,111.66881559980425,86.34261595452259,234.4168521321115
2024-05-26 16:02:11,130.43964572639064,102.15072444816589,111.68723224317148,86.89958185252308,234.1917248304795
2024-05-26 16:02:11,133.34252632328187,103.72133946457961,114.71725145377101,88.34335167844183,234.039472361834
2024-05-26 16:02:11,135.2322250789046,105.15143049401256,119.42400054439537,90.09457615528206,234.09635116897226
2024-05-26 16:02:11,137.4803451111881,106.8112259186003,123.19691061546327,91.64210120996592,234.29971314944015
2024-05-26 16:02:11,140.40884869458563,108.87640206702422,125.1014016996694,93.30153566674973,234.32042557934838
2024-05-26 16:02:11,143.44652772205214,110.77320321214134,125.47161981277061,95.32787779532359,234.196198189508
2024-05-26 16:02:11,145.31594496743324,112.20446361346556,124.254458280048,97.37740256550845,234.09151574516
2024-05-26 16:02:11,144.5714909370022,112.81579657877413,122.41130613449639,99.18584248137843,233.99858122648695
2024-05-26 16:02:11,141.05879591445515,112.19651710178428,121.2656918420966,100.49374890694806,233.9513916127656
2024-05-26 16:02:11,135.6436535168325,110.73831160673399,120.91315980529393,101.24277109734962,233.97497837505017
2024-05-26 16:02:11,128.2540251107219,109.25917184148652,120.85064333662632,102.04918507327285,234.15055502643742
2024-05-26 16:02:11,118.49167432769644,108.93506653686231,120.63577878902892,103.50478261102121,234.35926688163084
2024-05-26 16:02:11,106.85136966704776,110.7302167040685,119.49648250476115,105.68005034037377,234.30808357731019
2024-05-26 16:02:11,94.80075450058817,114.17688221426383,116.89847441152601,107.97365421110149,234.14149926908107
2024-05-26 16:02:11,84.48362853425535,117.70929022735031,113.7153584703382,109.54983080695949,234.0735483210865
2024-05-26 16:02:11,77.08178943185108,120.21618181024363,111.03665750851209,110.3351697859787,234.03741434647839
2024-05-26 16:02:11,72.49741594683377,121.69892784827093,109.14247816157688,110.8679698787486,233.99000674400278
2024-05-26 16:02:11,69.98040139284478,122.91705756409314,108.06980679918472,111.68861384685007,233.96315193529034
2024-05-26 16:02:11,68.84672205836794,124.9922278735629,107.79291268906591,112.89912308186597,233.9834523531999
2024-05-26 16:02:11,69.2251265281423,127.84280324856492,107.94646197118513,114.26072139102538,234.02012757050298
2024-05-26 16:02:11,71.17948433531222,129.415421605634,107.86075442494854,115.53631967768249,234.025208423577
2024-05-26 16:02:11,73.45092826695007,128.7637488996852,107.56228078295267,116.22009523939253,233.99666684303435
2024-05-26 16:02:11,74.51114615000368,127.1253867291245,108.11965075677608,115.82198444219351,233.7236032688117
2024-05-26 16:02:11,74.41456363174763,125.55945181957577,109.90529265517803,114.5873313161449,233.3375254236702
2024-05-26 16:02:11,74.60708113735714,123.6803052813372,111.95239471000389,113.23570626583194,233.51864408521595
2024-05-26 16:02:11,76.25617786131367,121.16383111076951,113.42341414664129,112.3830123908332,233.99785969631702
2024-05-26 16:02:11,79.06549392881374,118.9020059966376,113.88245089606194,112.16797371782762,234.1303829958444
2024-05-26 16:02:11,82.6622244161407,116.5627780199138,113.29181918141617,112.19477506460353,234.24446691653705
2024-05-26 16:02:11,86.97495470253202,112.9675024383378,112.71607381867098,112.36270481136727,234.4763089556024
2024-05-26 16:02:11,90.43939410579232,108.87072092099166,113.144582863827,112.66271267787012,234.5360167976449
2024-05-26 16:02:11,91.05543351564724,106.11995077545292,114.33217282240963,112.76820167677151,234.46439947720273
2024-05-26 16:02:11,89.42189595623243,106.5736976041326,115.43366368407894,112.90912179835165,234.30073852328755
2024-05-26 16:02:11,88.92641744866503,110.77590019367075,116.00115890957952,113.38782127962932,233.65786763496692
2024-05-26 16:02:11,93.19797755120437,116.42680587927319,115.90006736673179,113.75052837451946,232.82012179947287
2024-05-26 16:02:11,102.19967576790798,120.34551611395531,115.12725667840701,113.74838300807276,232.92991093097586
2024-05-26 16:02:11,111.44123109670822,121.24651996292607,114.62883704498904,113.56549278227165,233.58178444085758
2024-05-26 16:02:11,117.94564898153372,119.55449295951308,114.86026905126484,113.2916211270815,233.88091507615562
2024-05-26 16:02:11,122.86358999687226,116.13720240877991,114.69621120304757,113.10774815873573,234.0964195648976
2024-05-26 16:02:11,127.75843104844586,113.20077267316184,113.62754885674154,113.22011003296713,234.28869673570858
2024-05-26 16:02:11,133.08190900067788,113.30903836011721,112.35564621829919,113.79288062130176,234.31952378562568
2024-05-26 16:02:11,139.23753722620637,116.3582343462646,111.58460704513814,114.65221913199446,234.23225053814778
2024-05-26 16:02:11,146.00725438017707,119.70179131089414,111.79677391068887,115.3771890907783,234.09926510441915
2024-05-26 16:02:11,151.18501190267676,120.57631840667348,112.78462637587505,115.73330249911209,233.88051049671054
2024-05-26 16:02:11,152.72963075427998,118.23568416684087,112.94971511315347,115.43063940930959,233.5994035475814
2024-05-26 16:02:11,152.6101449592785,113.53278546156804,111.21498488949723,114.62428982909528,233.52464050984048
2024-05-26 16:02:11,155.36109007463924,108.05808883835775,108.9230339904352,114.1029318570021,233.67684029583654
2024-05-26 16:02:11,162.8012065244315,104.41447608793645,107.89705177423241,113.93557837568267,233.95966313211272
2024-05-26 16:02:11,172.6830390399385,104.18644510710351,108.3809207671031,113.5237924944062,234.25181842524208
2024-05-26 16:02:11,181.7861521331787,106.26022990777304,109.28938084014385,112.96404834591628,234.39247776611438
2024-05-26 16:02:11,188.49564673924505,108.4269615090534,109.41344793640923,112.54314931800171,234.26412091343013
2024-05-26 16:02:11,192.43159631557586,109.03342220302929,108.17054908883956,112.11737905509297,233.9345347803007
2024-05-26 16:02:11,193.20804917816707,107.78469660767004,106.00071764034799,111.79817802546545,233.89376229947422
2024-05-26 16:02:11,189.89090317660325,105.71375567773923,104.27459122199939,111.6811283832846,234.63084608972216
2024-05-26 16:02:11,181.98503018237608,104.16408130014023,104.23307901152594,111.33536920800931,235.4471705265384
2024-05-26 16:02:11,171.76172069497233,103.43635224287311,105.62527518665225,110.3977500866736,235.260861626472
2024-05-26 16:02:11,163.439808311518,103.00568777368743,106.60892150015913,109.27239020719294,234.55700438688265
2024-05-26 16:02:11,159.71755945597866,103.10346753366888,106.2293001770372,108.91246415572672,234.24605784959482
2024-05-26 16:02:11,160.2883098830535,103.4087520718641,106.088648403742,109.88868876317132,234.4216202322594
2024-05-26 16:02:11,162.17856845124098,102.41855579341453,108.19453684819563,111.9806209257835,234.61477451421078
2024-05-26 16:02:11,161.47981949397294,99.37426151295398,112.04075921807708,114.19560440763296,234.500001276984
2024-05-26 16:02:11,156.21048351697416,94.53155917312077,115.62176009889079,115.40768682954287,234.40254208519715
2024-05-26 16:02:11,147.90239853085285,89.47314719846688,118.2025252707708,115.54817295613829,234.41855441571633
2024-05-26 16:02:11,139.60207801291884,86.73337970992958,119.86246575993441,115.29071938262217,234.5226474011759
2024-05-26 16:02:11,132.223556037198,87.76169847159318,120.22391390648461,114.68908609488953,234.75326741457815
2024-05-26 16:02:11,124.39986655712741,91.53268223757563,119.1120608427641,113.88289264182765,234.70417167118472
2024-05-26 16:02:11,115.9545717320697,95.14453408419969,116.97729895047837,113.72134353169336,234.54301353855018
2024-05-26 16:02:11,108.58231328977621,96.7329205735945,114.43136349316006,114.05384929043272,234.62850465314813
2024-05-26 16:02:11,103.58344137229527,96.28320750027805,112.169054783037,114.12917009844534,234.48529853806244
2024-05-26 16:02:11,102.01094633220482,95.13572765482459,110.9918979223698,113.82932505046828,234.1761393328701
2024-05-26 16:02:11,104.54066789916536,94.99856973497408,111.76032438274355,113.10462453764671,234.23736691013457
2024-05-26 16:02:11,109.87670554271372,96.1995897122645,114.49359826239653,112.12592868836356,234.30972198643477
2024-05-26 16:02:11,115.35501550539894,98.78158833975586,117.1593823885861,111.34710581694668,234.1340306887755
2024-05-26 16:02:11,118.50869313817202,102.309848044337,117.63653177901564,110.7952757381449,233.4767604530166
2024-05-26 16:02:11,118.38717397576674,105.24203751855423,116.26783580091703,110.38561953821771,232.65194388352415
2024-05-26 16:02:11,116.66101578603222,106.74274486423721,114.84603561442111,110.236684823953,232.77000872814912
2024-05-26 16:02:11,115.20250666449454,107.67405133630606,114.65939138682329,110.42688516615343,233.35807020520573
2024-05-26 16:02:11,113.31734916581686,109.27952718674777,115.82271826547088,110.93048666231222,233.6571805893234
2024-05-26 16:02:11,110.3154664890504,111.46811196242462,116.7998298073676,111.41205133670606,233.88733813138515
2024-05-26 16:02:11,107.63058134036865,113.81988870184773,115.39638341666549,111.76530632183693,234.1036914063197
2024-05-26 16:02:11,106.41083292817875,116.21135904369204,111.20625232917892,112.21913842065197,234.15167542236898
2024-05-26 16:02:11,105.83255373667551,117.88481810392301,106.15144651354846,112.39311783137683,234.13864093017938
2024-05-26 16:02:11,104.28412099032948,118.06834784562636,103.46013781086148,111.39983907045037,234.21024436204053
2024-05-26 16:02:11,101.28581458012937,117.10643344561193,105.06926627085664,109.22548196371031,233.35448639252894
2024-05-26 16:02:11,97.72412658660326,116.43666949296508,109.7909267032101,107.58782748400371,232.07914392551385
2024-05-26 16:02:11,94.32037490100332,115.891711990923,115.28796100832837,106.32704646724545,232.33643573191515
2024-05-26 16:02:11,91.39286423843429,116.09582877876451,119.33487044705694,106.00291169760445,233.24904436404117
2024-05-26 16:02:11,89.81013012719895,126.83822731476383,120.86625900447106,119.41774950816705,233.75457002778998
2024-05-26 16:02:11,90.09948995604277,156.58473704300945,121.14463093225805,154.41412302749399,234.18166232636077
2024-05-26 16:02:11,91.58043081981691,193.18035488507,121.74365926080937,194.00694062961185,234.4852915302252
2024-05-26 16:02:11,93.31601022675075,218.8736225862476,122.45283795674193,221.465774630873,234.40165078065283
2024-05-26 16:02:11,94.24314559790353,232.55440089771895,121.54063884636562,236.03868221904514,233.9534453065769
2024-05-26 16:02:11,93.29988998335007,238.89953168694234,118.25893548308518,239.9839823095469,233.66686959556307
2024-05-26 16:02:11,89.73021503796205,238.78748706696902,114.30185036763646,235.35218684592206,233.09739195915222
2024-05-26 16:02:11,83.26155434480991,231.19054582313865,111.50403886815695,229.48355825866247,232.25137113700222
2024-05-26 16:02:11,74.66390632200601,210.0318785142909,110.22655867462286,229.9683370176485,232.377981398066
2024-05-26 16:02:11,64.78777413035635,172.25629930454846,110.72612659204812,232.54217404945365,233.04716123019008
2024-05-26 16:02:11,55.02225366082353,127.3890194033539,112.41374286553287,217.04445095110452,233.6768641034343
2024-05-26 16:02:11,49.089172724398374,90.03595349680354,112.8744234194484,171.4351238091148,234.42139565113362
2024-05-26 16:02:11,49.720549694553995,70.35881408378174,111.35167039227302,116.19077825496448,234.84388841738445
2024-05-26 16:02:11,55.441306058238155,70.38947678632007,110.03400550575911,77.083620789105,234.64978691025468
2024-05-26 16:02:11,63.72173379913421,83.19775860490809,110.9897819794892,59.75703582542593,234.16579529884544
2024-05-26 16:02:11,72.95579374915184,96.50945002699407,114.62959831319588,58.81630992649903,233.9447500604695
2024-05-26 16:02:11,81.40046053811221,100.71299780998966,119.63757725427412,66.23444825182649,234.09620309747893
2024-05-26 16:02:11,87.2766849933238,96.1534859108245,123.65634974044777,74.10552761477551,234.3834684256152
2024-05-26 16:02:11,89.68534464970962,90.91371898871475,124.90823901006523,77.14710950286177,234.3942567167746
2024-05-26 16:02:11,90.13390736244715,90.21544603656537,123.08779052342067,75.49693859558273,234.0064108905458
2024-05-26 16:02:11,92.48986592638622,92.3011573219202,119.41873690286317,73.36589634156998,233.6877179975942
2024-05-26 16:02:11,98.76066256809192,93.91795792185312,116.00487620843333,73.83220945839147,233.81442348130795
2024-05-26 16:02:11,106.42364354448053,94.91348494938795,114.41572566906095,76.01754771688081,234.28965563055834
2024-05-26 16:02:11,111.57834981931386,97.23349191163722,114.78396803879185,77.31645903717705,234.5817455039633
2024-05-26 16:02:11,112.04499892147115,101.31358920542326,116.5886841502712,76.9458205049752,234.44096745250772
2024-05-26 16:02:11,107.54431516524566,104.58458804825698,118.55753037891168,76.70983147596692,234.27501028876338
2024-05-26 16:02:11,98.75370644192303,104.04812171913727,119.0446647335984,78.45749875250496,234.01477142693662
2024-05-26 16:02:11,88.47558417874012,101.46553224405226,117.81384646761073,81.58400938188925,233.66012700875928
2024-05-26 16:02:11,80.85421325806352,101.80839769347854,115.8490799492124,83.9205332577621,233.61933287480508
2024-05-26 16:02:11,76.65820512826912,106.57303526363044,114.20417448378885,84.48139779878619,233.64090735133004
2024-05-26 16:02:11,73.85062991833351,112.7699840427837,112.84476331804055,84.46363687968345,233.63020177765367
2024-05-26 16:02:11,70.46059701962491,116.07261207772781,111.6357469444227,85.05422957290392,233.98818888003478
2024-05-26 16:02:11,65.50151111160451,115.24769500333548,111.85159714246676,85.71719674301255,234.50037740787462
2024-05-26 16:02:11,60.829026503653004,113.08933061542416,114.45809078555723,85.56325299928264,234.52749348772522
2024-05-26 16:02:11,60.12702395711362,112.39830513331533,118.34504886196298,84.74548771623199,234.15171602388807
2024-05-26 16:02:11,65.26062266847687,113.88886942221413,121.26736963292211,84.24168082645035,233.89131272421812
2024-05-26 16:02:11,75.22088682523749,116.06244397667653,122.17612185878073,84.54933238587006,234.05073292769382
2024-05-26 16:02:11,87.45004650702131,117.20944031634929,121.04123514513489,85.14174343123315,234.5374349216375
2024-05-26 16:02:11,99.45969509304894,117.95755025972542,118.19713927131278,85.22606544726726,234.7550692863249
2024-05-26 16:02:11,109.1655071478934,118.86547800208237,115.51164070456913,84.72763613859634,234.47354103550038
2024-05-26 16:02:11,114.7544055345891,117.90688531436177,114.59091100092479,84.39435083423255,234.14908327226834
2024-05-26 16:02:11,116.44864143949239,112.77703496282189,114.4182846787917,84.49573050556685,234.05032021868348
2024-05-26 16:02:11,116.82627826135926,104.30211927471832,112.85058912555387,84.34626901207696,234.04999190857166
2024-05-26 16:02:11,117.61390735914787,96.27308936074975,109.38622584074524,83.5740323075628,234.14585175118543
2024-05-26 16:02:11,118.60377156362748,91.52464137002302,105.8094539876783,82.61022244450436,234.2911603143056
2024-05-26 16:02:11,118.94105867269882,89.94788120200568,103.93866519087558,81.91842596959859,234.26706148707075
2024-05-26 16:02:11,118.14191136526573,89.6174146701794,104.11765319385994,82.00030933869516,234.17412604544924
2024-05-26 16:02:11,117.3041102872155,89.18324024495956,106.01648573355948,83.12870052898269,234.12734282588727
2024-05-26 16:02:11,119.2891648020926,89.14912995762846,108.66216699201935,84.4874122180742,234.16577677072164
2024-05-26 16:02:11,126.50097156999342,89.30076564509675,110.33802175746612,85.19363330299271,234.26962869917355
2024-05-26 16:02:11,137.72831736509426,89.34771376654676,110.53471533706042,85.75131466864859,234.24563164748025
2024-05-26 16:02:11,149.14760107373695,90.83282855792984,110.08662026655574,87.08212712418401,234.18056044279498
2024-05-26 16:02:11,157.43339894005794,94.42398434236398,109.65885021698507,88.89794725633675,234.14857873409048
2024-05-26 16:02:11,161.25499811258746,98.75701234494076,110.07508483782372,90.25207475818519,234.04547453873172
2024-05-26 16:02:11,161.9832999687615,102.42425001511882,111.90616195020941,91.02404383486288,233.92827157221066
2024-05-26 16:02:11,161.65292396742106,105.10250673956514,114.74339462077651,91.68106760249402,233.92015586523863
2024-05-26 16:02:11,160.37054373664242,106.59468554422338,117.22011564758462,92.56391256736097,234.13905051417373
2024-05-26 16:02:11,157.41170234885678,107.21900133709772,118.08327315078597,93.85336573736677,234.40090914278042
2024-05-26 16:02:11,153.14613237082253,107.87917716650675,117.98197040581955,95.45958887230191,234.46856550557158
2024-05-26 16:02:11,148.68849183499378,109.16427744024281,118.249712918731,97.541991835717,234.45047496158026
2024-05-26 16:02:11,144.94478710453973,111.57616899237354,118.7553242928693,100.6670972581922,234.3447132374925
2024-05-26 16:02:11,142.64448361206198,114.56126751554186,119.0466082191496,104.55004895295997,233.94977917223667
2024-05-26 16:02:11,143.1246469728393,117.70215244920271,119.15622292968152,107.92333801492308,233.45810740473436
2024-05-26 16:02:11,147.3242003934842,121.75041610908308,118.84704466757124,110.180387862374,233.3845014238452
2024-05-26 16:02:11,153.6365558183921,126.17914372716574,118.04204911738441,111.81137312658757,233.59030465641257
2024-05-26 16:02:11,158.81968903729916,129.68463859951018,117.48920765999945,113.27642314204456,233.77787812850957
2024-05-26 16:02:11,161.41472976469205,131.88803349081988,118.21304340479558,114.48318534860068,233.98832337527594
2024-05-26 16:02:12,162.14722262528403,132.40374854933378,119.92583703208807,115.3776380075319,234.11992204682443
2024-05-26 16:02:12,161.2448145554682,130.73376570036783,121.39693836793002,116.26085545331053,234.2012048751292
2024-05-26 16:02:12,158.60700262894562,127.00151810989696,121.7033287906965,116.87258419579086,234.27131114516942
2024-05-26 16:02:12,155.116707782504,122.15084295054174,120.70615151945294,116.74718919958461,234.21887824427768
2024-05-26 16:02:12,152.09765902035087,117.67196306113618,119.36711514080142,116.12194546975356,233.66514128330007
2024-05-26 16:02:12,150.2853273922764,115.12727253022966,118.60470603596899,115.43630863686975,232.86621908939847
2024-05-26 16:02:12,148.82123792840503,115.09395435032246,117.90444685568528,115.1119764335654,232.8233300018388
2024-05-26 16:02:12,146.3983337917518,116.64186540812108,116.13393786347932,115.38915067261615,233.2309783031654
2024-05-26 16:02:12,143.3527571545671,119.48832209684028,113.95099874006064,116.01713139824007,233.66675259123608
2024-05-26 16:02:12,140.18011978781584,124.2603401703048,112.90278483599246,116.50092026403227,234.12911086888008
2024-05-26 16:02:12,135.99163589083201,131.4971306796349,112.6543630824645,116.74403520391076,234.34060685850145
2024-05-26 16:02:12,130.6154465486538,140.16798422150515,112.59631040642466,116.8590906861136,234.37411007640367
2024-05-26 16:02:12,126.24581692839931,146.4653357456179,112.7579909337606,116.8425620547099,234.14925311928604
2024-05-26 16:02:12,125.01176520287999,148.25514479778906,112.68845310724863,116.924713373932,233.90374759311794
2024-05-26 16:02:12,125.9601729814669,146.85607062094343,113.03662004686826,117.3455996335777,233.74116554346995
2024-05-26 16:02:12,125.85516650625209,143.94887593445785,115.4466489297431,118.25115448124399,233.51883990172533
2024-05-26 16:02:12,122.12599715905795,140.43058661185106,119.66330230443897,119.56161311321434,233.50957300318197
2024-05-26 16:02:12,115.68720904427067,137.14472213592552,122.8240449501495,120.756965591045,233.70942135184418
2024-05-26 16:02:12,110.1373165256192,135.12214189643737,123.13340274286361,121.24682992678085,233.98765616350937
2024-05-26 16:02:12,108.6203946084305,133.79038576806437,121.74656284304021,120.78541480515798,234.24135820235028
2024-05-26 16:02:12,112.5539073836286,132.37410298450806,119.79600647850583,119.90566124628825,234.3636041554446
2024-05-26 16:02:12,120.46188106787184,131.9979114168007,117.27517377013325,119.20841133028108,234.25741419194657
2024-05-26 16:02:12,128.26027594201915,133.5027502912427,114.3245364866386,118.90248129170543,234.08245516687685
2024-05-26 16:02:12,132.71197672615764,136.57723276965098,111.74359165678878,119.36136974439901,234.11194791659102
2024-05-26 16:02:12,133.33084812696163,139.74894297129717,110.42576612544521,120.5464695356508,234.48176679687782
2024-05-26 16:02:12,131.52195333138638,140.58944681266448,110.39434284037841,121.78873792941154,235.0882129471998
2024-05-26 16:02:12,129.167271395998,138.41310615866908,110.91858963300052,122.4147489135357,235.18647488216587
2024-05-26 16:02:12,127.20889951265806,134.95458458496924,111.82255499976472,122.21129628698027,234.64034351432204
2024-05-26 16:02:12,125.91414448854488,131.45470045042993,113.36327058146342,121.62417233187661,234.16416179079437
2024-05-26 16:02:12,125.11831156059615,127.6812824237658,115.18919762464785,121.11984224213373,234.16054518224425
2024-05-26 16:02:12,123.31223961675114,124.4959845294232,116.65194133473932,120.58514520431072,234.50871586687003
2024-05-26 16:02:12,119.05602095285883,123.44491764818848,117.0990393119851,119.96490919463245,234.67385841063333
2024-05-26 16:02:12,112.82160999599483,123.90224070047222,116.51324245805563,119.6716034074322,234.5747844068651
2024-05-26 16:02:12,105.77047450941365,123.81617071809153,115.78091376044799,119.71073254624407,234.52506310552337
2024-05-26 16:02:12,98.97426888088611,121.45853080555263,115.34080586014154,119.72701175771307,234.78726225746232
2024-05-26 16:02:12,94.029954982358,116.46531772858555,115.10119092504692,119.60865137445475,235.18220973069933
2024-05-26 16:02:12,91.94253168294229,109.84209593237136,115.36152620008069,119.59818140291264,234.99000377019163
2024-05-26 16:02:12,92.55902692582532,102.75681488092847,116.62262888866915,119.8452597650869,234.48889176386658
2024-05-26 16:02:12,95.06466252694483,96.67032438889377,118.72655701515049,119.84513844555806,234.22657242604964
2024-05-26 16:02:12,98.16614069240589,92.41271247242172,120.60879864658727,119.29396567341844,234.0569409751019
2024-05-26 16:02:12,100.70259585053263,90.07506938609437,121.81979001209224,118.49062058670282,233.92730735658523
2024-05-26 16:02:12,101.97040624987994,90.14030515662984,123.10798356394528,117.57638299163054,233.9103823265418
2024-05-26 16:02:12,101.2786204536078,92.00151278546083,124.17950159478764,116.76869302533713,234.12528142325226
2024-05-26 16:02:12,98.4233703954126,94.67193653464365,123.64475810191183,116.46630414466924,234.52197397019813
2024-05-26 16:02:12,94.76748476796456,98.48075522566194,121.45542375885242,117.14538187899426,234.67522470325736
2024-05-26 16:02:12,91.94382715459959,103.55032589113821,118.72603797834222,119.4369958901762,234.44408968018362
2024-05-26 16:02:12,90.2147838828373,108.82616897933157,116.62638844347921,122.85253792857861,234.20521777467806
2024-05-26 16:02:12,88.8210275324084,113.09415212367743,115.92019410874663,125.84202945079214,234.1101799197852
2024-05-26 16:02:12,87.22173266259347,116.29200564711888,116.53921060718324,127.38914935720513,234.1617654869668
2024-05-26 16:02:12,85.3932875072813,118.89714909626034,117.78165965487013,127.51881183709251,234.2843295592905
2024-05-26 16:02:12,83.13576678403906,120.65545183658307,119.14806641002066,126.77297564170858,234.3798360981665
2024-05-26 16:02:12,80.41026061694123,121.01061344784135,120.88953448652785,125.45933820808163,234.49523370699194
2024-05-26 16:02:12,78.39120497029748,120.15899986409308,122.85960126167078,123.88653329622504,234.44512722173388
2024-05-26 16:02:12,78.47410786531053,119.53977979091485,123.67242921900808,122.59583594768056,234.2195785820053
2024-05-26 16:02:12,81.11157043705528,120.29434735566649,121.9454590688489,121.34499473173764,233.14807236402066
2024-05-26 16:02:12,86.31035463360247,122.58021556804394,118.20557122966771,119.79833337985207,231.6657890514932
2024-05-26 16:02:12,93.06783468318555,126.54804861461416,114.95565994778607,118.50507387143563,231.79209432772967
2024-05-26 16:02:12,98.87337700349764,131.01121788398567,114.371300822668,117.80823106200651,232.8179192974336
2024-05-26 16:02:12,101.129153693322,133.29679161949215,116.09249395069128,117.63544367839506,233.54023553736928
2024-05-26 16:02:12,98.44265608320119,131.78756671058662,118.20208274055716,117.74940254294381,234.188754663699
2024-05-26 16:02:12,91.68970171365171,126.94335621015144,119.38282304506818,117.87977934879416,234.6416734815332
2024-05-26 16:02:12,84.223212066909,120.57443751608733,119.31029313268357,117.8739760834712,234.7246454342178
2024-05-26 16:02:12,78.52162048350294,114.1201112620631,119.13641204440378,117.4919755011652,234.37908110567946
2024-05-26 16:02:12,75.28249363952692,108.8594396814582,120.1104436858085,116.93452261276607,233.99946270804978
2024-05-26 16:02:12,76.30172245669296,106.58920077474949,121.11782256533543,116.7178130087189,233.9690291061704
2024-05-26 16:02:12,82.48650601862442,108.39825488787044,120.81777610995928,116.63417657921818,234.231607421479
2024-05-26 16:02:12,91.60915298125673,114.45288860330736,120.34713429965637,116.41946251898361,234.44336863159035
2024-05-26 16:02:12,100.7424701532108,123.38346274501512,120.83475828683117,116.25814942676926,234.28546664312088
2024-05-26 16:02:12,107.12281434992076,131.87688938700097,121.52198834111113,115.88455638163498,234.04923906708237
2024-05-26 16:02:12,109.70253483300682,136.33932761338787,121.39623244306759,114.71997886404532,234.1629048965176
2024-05-26 16:02:12,110.90343346876674,135.68585195765812,120.14836512552878,113.15131361847706,234.42195857792026
2024-05-26 16:02:12,113.8084030566695,131.99896335877676,118.01737650798354,112.3534820851118,234.4937203725205
2024-05-26 16:02:12,119.10359649388637,126.87504462224808,115.15903289657565,111.3951527634122,234.57489853150514
2024-05-26 16:02:12,125.49905922974224,122.4369236092158,112.4554513633331,110.37630961476917,234.64336708356882
2024-05-26 16:02:12,132.02507550428447,127.55757951663426,111.72885398933309,120.63773067277083,234.62235317534908
2024-05-26 16:02:12,138.72153965727534,152.02654608018375,113.40715039680238,152.32253628315468,234.62124644965493
2024-05-26 16:02:12,146.4023548169186,187.53568397581404,115.92050471864958,191.85870413883598,234.42945516284524
2024-05-26 16:02:12,156.26428439645989,215.40953682435432,117.78807932109177,220.0202337711221,234.12984807016795
2024-05-26 16:02:12,168.29052381318493,231.69139417106106,119.58516053657898,234.3414254580804,233.9920711760884
2024-05-26 16:02:12,179.9665845528017,239.65806524988832,121.94524832747287,238.9337803196203,234.1233372667191
2024-05-26 16:02:12,187.5456838003487,239.42480167283074,123.7978933744276,237.09811336744806,234.3572399136917
2024-05-26 16:02:12,188.80346830124256,234.00428470203394,124.46578620920808,233.6073942962038,234.33011222396496
2024-05-26 16:02:12,183.16297639162858,221.63970998982333,124.13892166233778,232.8635202763193,234.1511246929706
2024-05-26 16:02:12,171.40790222142886,192.08074067886744,122.99006900881936,232.9061409537965,234.05676994688966
2024-05-26 16:02:12,156.40109867938048,145.800331811981,121.3671652024462,218.0432830285127,234.27036603567407
2024-05-26 16:02:12,142.17222141279277,98.56844473262402,119.66012406910016,175.34979253536792,234.64480326329814
2024-05-26 16:02:12,131.8462045425069,66.06473692780773,118.37985436866484,119.50722739666914,234.60454093178924
2024-05-26 16:02:12,125.78925878985075,55.43421814983155,118.20787551958864,75.96688022963332,234.33785466658338
2024-05-26 16:02:12,123.46454627372103,64.18143197297633,119.34133158124547,54.92127956572371,234.18650398243952
2024-05-26 16:02:12,124.79637580323019,81.64197348229315,121.34788208020444,51.76854369918339,234.17433560632008
2024-05-26 16:02:12,127.58891029868963,95.18919569868405,123.12923603212488,57.15595787791517,234.3813310970608
2024-05-26 16:02:12,128.0303633955356,99.95973710301767,123.30571962882948,64.11748016865006,234.6834143410975
2024-05-26 16:02:12,125.0795707094091,100.22419316975882,120.97848934128042,68.76264222290759,234.81807674381804
2024-05-26 16:02:12,120.9684336803227,101.34286406126824,117.0648755860378,69.91572082025415,234.6429247654813
2024-05-26 16:02:12,116.86776169284924,103.23690261786003,114.41456820960568,69.41006188719227,234.4381320743063
2024-05-26 16:02:12,112.23452810719304,102.51816103024237,114.49800744520776,69.81315053304529,234.35511098693385
2024-05-26 16:02:12,107.71246499437426,99.455507307489,116.18478681741237,71.58699702975984,234.33372100411918
2024-05-26 16:02:12,104.5222859433843,98.64629340393152,118.05561315369943,73.4123191848997,234.56998165690288
2024-05-26 16:02:12,101.9380897089963,102.92690039103358,119.15477806099308,74.67153208500967,234.7807636313832
2024-05-26 16:02:12,97.36694372436015,109.85324058062619,118.92250344160175,76.15618424235447,234.57542450826233
2024-05-26 16:02:12,89.1022484051499,114.67117825062478,117.77827347077114,78.82935005200122,234.3435910825242
2024-05-26 16:02:12,78.18468708691137,114.88177786554279,116.88305321466174,82.31821738692534,234.3276973181732
2024-05-26 16:02:12,67.21614013347292,112.26098521191741,116.98232767108757,85.07640417491353,234.26891845812034
2024-05-26 16:02:12,58.97531285284044,110.87025277434363,118.02300485023835,86.27948153693744,234.30528875947712
2024-05-26 16:02:12,55.73555468623119,111.90234653350498,119.64056977537425,86.8067564674191,234.32655302915344
2024-05-26 16:02:12,57.46727392539924,113.39961366327476,120.47738998133856,88.17811161378908,234.13994371768013
2024-05-26 16:02:12,61.324856423335255,113.89703962358735,119.4442852789336,90.58086780974686,234.12147506822137
2024-05-26 16:02:12,64.18010579323155,112.66278678867414,118.3226624246972,92.69969077866268,234.29055820561658
2024-05-26 16:02:12,64.38355999470565,110.44420039163295,119.01207875758747,93.40271857505435,234.44591322620022
2024-05-26 16:02:12,61.03504713870463,108.93480311212095,120.78633700082197,93.01297379097139,234.53615772132034
2024-05-26 16:02:12,54.41824911414031,108.67580568185714,122.74597491721711,92.75611406902433,234.53755991256716
2024-05-26 16:02:12,48.06950283785768,110.02467137510965,124.76247865552531,93.11246767782097,234.3627275062093
2024-05-26 16:02:12,46.743653935501335,113.02851507711539,125.89526045567446,93.31405109430277,234.2649689248654
2024-05-26 16:02:12,52.47632359938703,116.57915767261318,125.11175860106445,92.49194408546734,234.3803592738151
2024-05-26 16:02:12,64.12601178911089,118.77063598824667,123.09166675454787,90.82485937027622,234.46609444038063
2024-05-26 16:02:12,78.44336827824061,118.29819854733641,121.09307062118603,89.3059517615521,234.49571911778634
2024-05-26 16:02:12,91.68569933749892,115.83123700261527,119.38976393645774,88.47849861636469,234.49829847912616
2024-05-26 16:02:12,101.65557298308089,113.52477249055886,117.78715648900803,87.89524768539088,234.49874906019892
2024-05-26 16:02:12,108.45002622429567,113.11525359714845,116.70653652815224,87.23463316820632,234.37666806257835
2024-05-26 16:02:12,112.97773300707003,113.39151714803916,116.99396029757409,86.54816282913346,233.8005179427583
2024-05-26 16:02:12,115.68706663053585,111.65675640816332,117.84684453758302,85.75850712983829,233.2127462700499
2024-05-26 16:02:12,116.69564597740316,107.21152633780055,117.43725737987565,85.07346053429303,233.3901075601476
2024-05-26 16:02:12,115.67487610034918,101.12900946138318,115.69956023968705,84.57431992629715,233.88862663857444
2024-05-26 16:02:12,112.90559062490824,94.70051729518175,114.11061783763057,84.06740130250004,234.34115360442146
2024-05-26 16:02:12,110.14679487407652,88.19488221748664,114.18654527393676,83.73913027830929,234.80787406479124
2024-05-26 16:02:12,109.57859329253282,82.1295212149117,116.51221257966874,83.9257789911494,234.95090384195765
2024-05-26 16:02:12,111.92196554211709,78.18390438710756,119.67085585873005,84.66609126694293,234.6420880584057
2024-05-26 16:02:12,115.9811991912866,76.71028418008058,121.05809704995482,85.81510501331229,234.33625134584537
2024-05-26 16:02:12,120.65665645116918,76.83198229801746,119.23888117678273,87.2139394606091,234.30141875396902
2024-05-26 16:02:12,125.35322267549657,78.22167890668719,114.8353455774347,88.78638254405487,233.76223304957404
2024-05-26 16:02:12,129.60673169004895,81.22606848436135,110.47120794058006,90.91831413808247,232.89661140463753
2024-05-26 16:02:12,133.43753490805247,85.28073641237037,109.17601679594844,93.71984220467363,232.89392959581832
2024-05-26 16:02:12,137.00840856807415,89.19522038514535,111.22054895154656,96.51220097900935,233.32373257471272
2024-05-26 16:02:12,140.0685017070477,93.83425791673079,114.33424734069598,98.72713581327356,233.5594019351835
2024-05-26 16:02:12,142.14738529954653,99.80455593021628,116.30639474669834,100.40691303383176,233.98937128451746
2024-05-26 16:02:12,143.99593177296396,105.16718129533552,116.3068012195392,102.06833472951125,234.4982566852127
2024-05-26 16:02:12,146.24109372366047,108.01266035351244,115.26445097406004,104.05243595576593,234.52168152128567
2024-05-26 16:02:12,148.165920230582,108.15305095875804,114.94840554680997,106.33274030893648,234.15814439453865
2024-05-26 16:02:12,150.20855763571672,107.19273690744204,116.2002285070738,108.63468912118137,233.90563735834468
2024-05-26 16:02:12,153.72470704831167,106.719804470977,118.67178651785278,110.64890010596994,233.67716804618613
2024-05-26 16:02:12,158.4383084562971,106.75965629035255,121.62311556514368,112.17239866342796,233.4248282162049
2024-05-26 16:02:12,161.91162781864966,106.47812722116737,123.88810486733254,113.12631700314766,233.61221710773094
2024-05-26 16:02:12,161.33487623456728,105.03930213282491,124.72704438366677,113.72163285421502,233.97117269905198
2024-05-26 16:02:12,155.5485267952119,102.67160292882132,124.94389195450199,114.03798975863708,234.0295243609007
2024-05-26 16:02:12,145.96946790271937,100.56486346932616,125.39916069846785,114.11754704679853,234.0821042330208
2024-05-26 16:02:12,135.91449310026144,100.20012022517972,126.1369994533409,114.06739523966287,234.34432012106544
2024-05-26 16:02:12,128.200911856229,102.03367959514213,127.02916699755525,113.67855452549402,234.6218126776328
2024-05-26 16:02:12,124.34398104293395,105.10715651070137,127.06582117807237,112.90370645651399,234.58434907822127
2024-05-26 16:02:12,124.75529178287913,109.3515007349998,124.81663937315577,112.29957161273194,234.3113469664196
2024-05-26 16:02:12,127.84084088500995,114.75239035101866,120.60745935459818,112.20074861672441,234.45856713927742
2024-05-26 16:02:12,131.17871811752974,119.70372725434954,116.3541631304768,112.37866129462547,234.8768723996258
2024-05-26 16:02:12,134.639848794263,122.35493420208734,113.804557475732,113.09409901792982,234.7228669930935
2024-05-26 16:02:12,139.8364327876886,122.02397056774333,113.43276205894249,114.55899491255747,234.24059730154462
2024-05-26 16:02:12,147.19063103138086,119.86992061987343,113.69879113204543,116.10096960790428,234.02630870940595
2024-05-26 16:02:12,155.3442169286869,117.69494013919746,113.0233583191759,117.21509530885602,233.909116636295
2024-05-26 16:02:12,162.25992110529984,117.67958016327569,111.67577292883438,118.18194741568809,233.86004994183773
2024-05-26 16:02:12,167.05166032236596,121.81467939168942,111.01047320634048,119.30495850045494,234.14681509248538
2024-05-26 16:02:12,170.80223144101245,129.04453355227056,111.74287262989102,120.30462850175009,234.40667780480783
2024-05-26 16:02:12,174.71255086475222,136.00649289714556,112.93831834672287,120.98798095737227,234.3510888532399
2024-05-26 16:02:12,177.81489891599537,139.6976746178824,113.38236402016703,121.42746654900148,233.50962846523262
2024-05-26 16:02:12,177.6578601174522,138.96383247440423,112.71752427552548,121.57898128171493,232.36592111086242
2024-05-26 16:02:12,173.300005819177,135.36062438122502,111.44769671704493,121.3598011359193,232.48711568967295
2024-05-26 16:02:12,167.00085021244928,132.15674603584003,110.36989319368008,120.60767172160308,233.15692750520802
2024-05-26 16:02:12,162.6435352634722,131.69278636272455,110.46244897991814,119.49444626019447,233.54649837454735
2024-05-26 16:02:12,162.5599768965228,133.4197759056982,112.56412413625262,118.51421546535873,234.0207772630859
2024-05-26 16:02:12,166.17761374672273,135.14921154667422,116.3152921936485,117.96934879557546,234.3292762043434
2024-05-26 16:02:12,170.9712794799978,135.19741694753742,120.1694584142801,117.99439252500967,234.1932314625862
2024-05-26 16:02:12,173.9774892083603,133.4374445189407,122.33024842278095,118.42219306600109,233.84732315337945
2024-05-26 16:02:12,173.53303232887492,131.4052651018848,122.63643069022439,118.85133366237719,233.75338908339376
2024-05-26 16:02:12,170.6979758753584,130.4173870727149,122.39132624421575,119.11873830195303,233.49053671224513
2024-05-26 16:02:12,168.13679477053316,130.93703777609412,122.65363894419727,119.40940834548016,232.91211408092786
2024-05-26 16:02:12,166.62182328073396,132.7011059904661,123.27644430078489,119.86284185029893,232.88429240093856
2024-05-26 16:02:12,163.87493873751242,133.94958777431833,122.83630476754252,120.26839694207126,233.19272079297494
2024-05-26 16:02:12,159.6841828022656,133.18639163298724,121.31954624347418,120.5110398313809,233.4626374594261
2024-05-26 16:02:12,157.82634543899178,130.66181383116236,119.97356328951572,120.69554980561368,233.92183019121472
2024-05-26 16:02:12,159.99504178473882,127.46291611875154,118.71677953656759,120.69604619232345,234.29602977095126
2024-05-26 16:02:12,164.07877024683592,125.38040403420246,117.66078953665593,120.57887533952292,234.23329398215316
2024-05-26 16:02:12,167.6466493223995,126.40715971739496,117.72261680713876,120.65915770144858,233.89040308181472
2024-05-26 16:02:12,168.50825202318555,130.70603021226628,118.81968975141486,120.75676170267461,233.74154432000597
2024-05-26 16:02:12,164.13715957434448,135.8004168689993,119.8213894212634,120.51993062919189,233.19392364297005
2024-05-26 16:02:12,154.44953243201724,138.79655253009352,119.57901636660579,120.32228601973024,232.24589730742147
2024-05-26 16:02:12,143.56762804268527,138.0155727821691,118.33728537175318,120.50806283102303,232.2926974209943
2024-05-26 16:02:12,135.80555563408083,132.9853652019199,117.40144794496065,120.6206897442415,232.8774750171643
2024-05-26 16:02:12,131.62917414013793,126.05326752891676,117.51712183675335,120.59581489694976,233.27516515818286
2024-05-26 16:02:12,128.70251350506723,120.8553200559607,118.42906389308439,120.8428993149044,233.85204201671075
2024-05-26 16:02:12,125.83246856545485,118.14629717306124,119.53786434608983,121.44294234964798,234.35459117781582
2024-05-26 16:02:12,124.80768051138492,116.66859767425066,120.8723865069694,121.89463363376224,234.32499200355912
2024-05-26 16:02:12,127.02360241371844,116.05792387929621,122.301791635268,121.6147579575568,233.8999598549253
2024-05-26 16:02:12,131.23636117126998,117.18233977437518,122.993344805868,121.37403964222874,233.67173093090088
2024-05-26 16:02:12,135.89125250628683,120.17374293351612,122.30145449535871,121.9701991926002,233.02094585821422
2024-05-26 16:02:12,139.77744548851135,123.42092217138051,120.82753875190576,123.19745490352105,232.08110930545814
2024-05-26 16:02:12,141.05078268330064,125.21469394067304,119.88335942136848,124.90653100225514,232.3687302949549
2024-05-26 16:02:12,138.23699711683747,124.63624742928047,118.65273808427109,126.35330612744684,233.14664298301184
2024-05-26 16:02:12,131.61468692106467,121.97968948600607,115.74124262366385,126.61291928278531,233.75956144863633
2024-05-26 16:02:12,123.41212868762798,118.6342212588132,112.35049443998,125.54069438618713,234.5252614392265
2024-05-26 16:02:12,117.74809144399927,115.71306483987635,110.02126134542564,123.68721449744159,234.91760225389612
2024-05-26 16:02:12,117.71911700584464,114.11531804009958,109.4065004544447,121.87410647719142,234.63217715338925
2024-05-26 16:02:12,122.50119117814906,114.85065877615799,110.84978266680497,120.50478562620783,233.9703063818175
2024-05-26 16:02:12,129.74076415060867,117.67757512051364,114.2036181042618,119.7308198921262,233.59303364495446
2024-05-26 16:02:12,137.78609207933795,120.56989253393071,118.882280692134,119.3769936167055,233.45102126940427
2024-05-26 16:02:12,145.6843914855126,122.23371804754146,122.80019903439245,118.73178679614338,233.28109975135337
2024-05-26 16:02:12,152.93291616715942,123.06031624021591,124.39463960743504,117.4126356812508,233.3599732814792
2024-05-26 16:02:12,159.40448695504986,122.9841386489986,124.88466508295545,116.08123422984985,233.54560259850945
2024-05-26 16:02:12,164.61974937919723,121.1689258982114,124.78543591553083,115.41092158238241,233.76234220542136
2024-05-26 16:02:12,167.27595566462827,117.04331324137948,122.67548632552078,115.24756219334319,234.26321841132392
2024-05-26 16:02:12,167.01233721266328,110.67107099662509,118.65430679266473,115.24357773649383,234.7951544920537
2024-05-26 16:02:12,165.13912821664474,102.88569502091508,114.52696586880677,115.18608800867152,234.72041524184405
2024-05-26 16:02:12,162.839729950236,95.28082215793957,111.43884375863641,114.86961505158601,234.12840124919782
2024-05-26 16:02:12,160.28412700671794,89.51062720627803,109.94837448073157,114.13350156216548,233.74368550755915
2024-05-26 16:02:12,158.16033097307488,86.67960890769996,110.34982124382981,113.12157638129082,233.98842881641025
2024-05-26 16:02:12,157.74491322555394,87.73703999507393,111.48473567257749,112.17050868718074,234.5014865780231
2024-05-26 16:02:12,159.2506973892405,92.63459295408605,111.73139308502553,111.45767975743829,234.53393849061362
2024-05-26 16:02:12,161.18598699954362,98.56544366409193,110.97953211527282,110.84626505476102,234.14252253658034
2024-05-26 16:02:12,161.20562837522044,101.69120850234358,110.42905835477269,109.80688340866381,233.87194635499023
2024-05-26 16:02:12,157.08895682525005,100.75310705142559,110.4415910612282,108.08097560478365,233.9181477511824
2024-05-26 16:02:12,147.75238155014193,97.58473875042381,109.65640717674421,106.86213897501005,234.2242910108907
2024-05-26 16:02:12,134.80353926029227,92.86672774813889,107.51103406890849,106.34244778298073,234.58306032903135
2024-05-26 16:02:12,121.81031453274052,86.54255106894931,105.03303948282728,105.69046985000766,234.7489016140811
2024-05-26 16:02:12,112.15671101652534,87.69869039862272,103.5859952062357,113.54513517812043,234.68342032936755
2024-05-26 16:02:12,107.2458078749378,112.54576148459579,104.05313206916294,142.85938352780428,234.76351588019728
2024-05-26 16:02:12,105.89162649739052,157.86179912283743,106.32063495121471,184.57993837079925,235.13362754489071
2024-05-26 16:02:12,106.0372730743016,199.0799794847059,109.52228875457254,216.502891085768,235.11968553066848
2024-05-26 16:02:12,107.53311473832987,224.49839056751193,112.62940386272965,233.22012865774806,234.72382752219272
2024-05-26 16:02:12,112.7157342766093,237.79278664928702,114.9787664081852,239.37074538583215,234.52229312565964
2024-05-26 16:02:12,121.88724014286686,240.83083670791532,115.90059013310866,237.8702074127486,234.521516096555
2024-05-26 16:02:12,131.12418972560724,236.00615192316275,115.29330321474185,233.6142603399629,234.6783499921474
2024-05-26 16:02:12,136.0347337212065,222.25554801933458,114.21243213801748,232.17651994092256,234.71576680062768
2024-05-26 16:02:12,133.9769609055468,192.53099537338585,113.20452378086017,234.5508561669143,234.5687094969576
2024-05-26 16:02:12,125.12493339832095,149.15751281030387,112.31310287502289,227.57470512135055,234.64383740018937
2024-05-26 16:02:12,113.24299887141329,105.10570965801752,111.95015711531013,192.73768369820456,234.86381796712047
2024-05-26 16:02:12,103.01429738002417,72.66606263871192,112.09220099326677,136.84987993140473,234.84635676163015
2024-05-26 16:02:12,96.5503725106787,59.39043546558091,112.46681790554177,86.82389348756253,234.5378603123879
2024-05-26 16:02:12,93.3317016596362,64.62833820891339,113.33628357955337,58.22497433785518,234.22518549137985
2024-05-26 16:02:12,92.95001894986125,78.04582793295967,114.58628641341438,49.457674647761586,234.06522149847117
2024-05-26 16:02:12,95.6044789641778,87.67728056564077,114.9239484722914,52.326027542151195,233.9899926449568
2024-05-26 16:02:12,99.4555979847302,89.88220018300494,114.01842457544477,59.187723377474235,234.09260820169132
2024-05-26 16:02:12,101.56208656701277,88.94306835735489,113.53684847963618,64.86895232076314,234.31011100547948
2024-05-26 16:02:12,102.09173796337514,90.80478132468212,114.56765783294377,67.0393022871615,234.32398217741195
2024-05-26 16:02:12,103.39610956349148,96.56825982799698,116.86029643620861,66.79305675412085,234.1903362215041
2024-05-26 16:02:12,106.47734584532105,100.81090694450955,119.97424482608413,66.97035244489922,234.21276153235058
2024-05-26 16:02:12,111.1023425531601,99.86343180599374,123.07096145626684,68.82707628361997,234.32746109620885
2024-05-26 16:02:12,116.75666592611546,97.28625317047376,124.84992556110545,70.91872520714553,234.2689813281096
2024-05-26 16:02:12,121.7392441983381,98.14095114627659,124.37487457535474,71.51694440160426,234.14907063126807
2024-05-26 16:02:12,123.25078949863163,102.2509021016991,122.19560539947973,71.05957070263331,234.23463728979465
2024-05-26 16:02:12,120.00460023852156,104.83009718321637,120.09044587315843,71.28101113767413,233.86950515773606
2024-05-26 16:02:13,112.91668464699733,103.36392054153198,119.72441022570266,72.85095609273542,232.97274132880057
2024-05-26 16:02:13,104.80877118754192,100.07162298922316,121.55350566986557,74.74371302220204,232.8668056265954
2024-05-26 16:02:13,100.20194482424868,97.88751387062621,123.76828402037408,75.60889569597406,233.38832518370504
2024-05-26 16:02:13,101.18772965775689,97.92265446435228,124.4092719961028,75.4834302358551,233.70856697325095
2024-05-26 16:02:13,105.30092387996282,98.13610614535156,123.73649705282104,75.72112558945236,233.9244187720878
2024-05-26 16:02:13,109.58514055009654,95.87288429295921,122.50594684936048,76.9958134722164,234.08242158930238
2024-05-26 16:02:13,113.13697208870532,92.10353287011618,120.85285583969923,78.30759852238027,234.10288821352765
2024-05-26 16:02:13,114.99171281871924,89.22411559999746,119.45232249027153,78.50406347548586,234.12633321448587
2024-05-26 16:02:13,113.91435338371197,88.25877688360607,119.08909020641514,78.13073827888515,234.24501217339696
2024-05-26 16:02:13,110.66845349259718,89.26115836397645,119.8227170885958,78.501563575468,233.76367346203415
2024-05-26 16:02:13,106.98628809991702,92.31843981330982,121.06919992979726,79.90671787937083,233.04355022173598
2024-05-26 16:02:13,104.35117495476379,96.99722134963504,121.69421765444267,81.72391121439246,233.36159805933414
2024-05-26 16:02:13,104.53320326503014,101.23726234701913,121.26792781175881,83.16067151226092,233.959198961606
2024-05-26 16:02:13,108.40399584542624,103.73197292826613,120.6832351017328,83.79801064634611,234.0329276734659
2024-05-26 16:02:13,114.91353025004818,104.59738953744366,120.8334494162123,83.87529249720224,234.24795735942035
2024-05-26 16:02:13,121.32760028725241,104.11160690250682,121.44402755514477,83.94696345803426,234.6135336264251
2024-05-26 16:02:13,124.59666222469639,103.50723902118631,121.41981638568234,83.82629195426271,234.51305917593766
2024-05-26 16:02:13,123.86234598474195,104.48115403023561,120.3648602410054,82.82762623044832,234.2125468318512
2024-05-26 16:02:13,121.16237121133504,107.22060279055358,119.16278057641532,81.27963985188572,234.19521298968073
2024-05-26 16:02:13,119.03565583837499,109.81019445646128,117.97056124799526,80.32156279337383,234.02389352381448
2024-05-26 16:02:13,118.17453363245663,110.33589280639077,115.670250880752,80.41458538622548,233.64666207795418
2024-05-26 16:02:13,117.96040900109674,109.2478873882971,112.19254840759069,81.28028553660923,233.57094090330332
2024-05-26 16:02:13,117.55613002355958,108.35338459775517,109.18742160656487,82.42276352949631,233.61834668432473
2024-05-26 16:02:13,115.97115982671126,108.31582798765615,107.82124254171404,83.2571200032008,233.787025440188
2024-05-26 16:02:13,112.92000058119936,107.74021446353223,107.64706754761858,83.68253861997187,234.227204878299
2024-05-26 16:02:13,110.082696059471,105.38361943112677,108.81226927999893,84.01431636847654,234.4825818004754
2024-05-26 16:02:13,109.27014883193566,102.66361556855969,112.14794287964915,84.61218023834928,234.4791757993274
2024-05-26 16:02:13,109.82567459747972,101.75800675560782,116.65144969200726,85.73140984127173,234.37524628455745
2024-05-26 16:02:13,110.21084242240202,103.38033624913618,120.0097970479349,87.47530324831982,234.153335946855
2024-05-26 16:02:13,109.89496756169643,106.35739827390987,121.10730939542165,89.91602022531747,234.45131139316484
2024-05-26 16:02:13,108.88963192612852,108.7666113600047,120.4533794174922,92.83134018990573,235.14970585533595
2024-05-26 16:02:13,107.92590072926575,110.16536158748266,118.63882515299709,96.21465638223441,235.211131926446
2024-05-26 16:02:13,108.68773198354998,111.19650712109045,116.42192838170641,100.0174731781358,234.81126474542833
2024-05-26 16:02:13,111.87279830660171,112.18782522073477,115.51795090005602,103.57188973982352,234.42636164651836
2024-05-26 16:02:13,116.8564012730221,112.90556158476272,116.60928696655782,106.80503499433073,234.16587956064672
2024-05-26 16:02:13,123.08209369492668,113.49589082610828,118.62836735615143,109.84659016426674,234.07990890790563
2024-05-26 16:02:13,128.70880852373958,114.37720355901446,120.65074127368857,112.25383832452971,234.02435205387442
2024-05-26 16:02:13,130.72822213722097,114.56006898444946,122.37417320199862,113.61852526237828,233.96475747100317
2024-05-26 16:02:13,128.68959441616047,113.11017641152,123.67269671499048,114.02390114172627,233.95179466236644
2024-05-26 16:02:13,125.23270684169634,111.35738290943813,124.45337239153287,114.43465639652791,234.37428400311796
2024-05-26 16:02:13,122.90564072500915,111.86792204657857,124.61854259810998,115.37470614849248,235.01380558061334
2024-05-26 16:02:13,122.86315714147997,116.41078279022102,124.21999424793628,116.40863769405246,234.95745955253554
2024-05-26 16:02:13,125.1108948735845,123.53089075633594,123.13241213938186,117.29928246425803,234.50086082699195
2024-05-26 16:02:13,128.44882295210996,129.25627239737057,120.8313815914579,117.72521195230566,234.23582031142828
2024-05-26 16:02:13,130.61241894616163,131.13619969019868,117.72500363905687,117.60636704984837,234.05367704651965
2024-05-26 16:02:13,130.17541843527272,129.70352124397607,114.76323563288432,117.40141685931101,233.92253878605925
2024-05-26 16:02:13,128.6410280404506,127.13464987145943,113.07155588474492,117.33721519018157,233.91346034796112
2024-05-26 16:02:13,128.32159596774628,125.10633424763185,114.30355647376228,117.39412880651133,234.00617025842135
2024-05-26 16:02:13,129.9522363509592,124.01551075119342,118.08840242971766,117.6009736141958,234.19779796386982
2024-05-26 16:02:13,133.24946536064192,123.03723600705305,122.48377312502743,118.01628731380265,234.35869544133797
2024-05-26 16:02:13,136.861204533429,121.20959942686902,126.52977651120182,118.57134895180702,234.26643878835026
2024-05-26 16:02:13,138.5507640504124,118.87191358836931,129.9077877722918,118.79270945369728,234.11808176123102
2024-05-26 16:02:13,136.96305287912168,116.36140854834139,131.95358191615617,118.45238676715776,234.09677601159774
2024-05-26 16:02:13,132.996889785501,113.76346396693454,131.5734170336655,117.87492045405779,234.19772505993134
2024-05-26 16:02:13,128.1781708465455,111.33903022410607,128.76012051023838,117.15781658345679,234.18899265990638
2024-05-26 16:02:13,122.7683908356512,109.98008133596203,125.20666456812991,116.53798580720625,233.91813419876178
2024-05-26 16:02:13,117.54390429316838,110.77508316497764,122.39454762634159,116.29353065373706,233.9543199475409
2024-05-26 16:02:13,113.10260881058895,111.92106765649739,119.76356015372151,116.21815776766566,234.40490153050487
2024-05-26 16:02:13,108.14104186654991,110.63349419261061,116.17680024568212,115.90944456607862,234.61646849396826
2024-05-26 16:02:13,102.60211386407579,106.69231036100949,113.0464747569023,115.13556636802612,234.55341230808276
2024-05-26 16:02:13,97.49161059491338,102.0032502317629,112.88842429274162,114.08198009705241,234.54177012103276
2024-05-26 16:02:13,92.1952273270601,98.66733272492282,115.40933483098019,113.00787881148834,234.43650489381557
2024-05-26 16:02:13,86.95755024093803,97.0566700321816,118.62441838930023,112.15068883000404,234.20915884215205
2024-05-26 16:02:13,83.45868064366542,96.60156380848301,121.57507511919948,111.95007952992098,234.036322864979
2024-05-26 16:02:13,81.55014047443389,96.31362891933988,123.64577561214823,112.37468462625667,233.95491538280086
2024-05-26 16:02:13,80.02647309230977,94.70102714106608,124.21436705973903,112.86281302766541,233.9684200640876
2024-05-26 16:02:13,77.60044278435628,91.48146588744873,123.37457317955771,113.06089491935947,234.01953580321035
2024-05-26 16:02:13,71.85703638809065,88.27577949858578,121.58404087525959,112.84780244846391,234.0339168758641
2024-05-26 16:02:13,61.60212711028762,87.27090184239864,119.94040381581341,112.45992136861719,233.999514327637
2024-05-26 16:02:13,57.239637969422176,92.7811340978634,118.55828982131995,126.84413014988046,233.999514327637
2024-05-26 16:02:13,60.70156215110956,103.1280923844705,118.24201483638825,150.28356686445238,233.968789316422
2024-05-26 16:02:13,58.09775609793388,109.59333691366615,121.05877697028646,149.88654635031912,233.98210844708916
2024-05-26 16:02:13,54.891989581180525,112.34150790424732,124.21924605632756,135.7848363795427,234.01716561687545
2024-05-26 16:02:13,58.4674833973191,113.97975561167507,124.78948073773178,127.81410076005713,234.15193917571213
2024-05-26 16:02:13,61.796985713428484,112.68909290043476,123.87782659475208,120.93401391647483,234.3256153072777
2024-05-26 16:02:13,62.72930514121187,109.06959224202345,121.80186483510303,115.62066612631281,234.28837963069458
2024-05-26 16:02:13,64.67411179696009,105.55778857969996,118.16934715689187,115.97668477671165,234.15995579754394
2024-05-26 16:02:13,69.59360684441631,103.21983753294366,114.33722013351174,120.27036086948561,234.10163512339668
2024-05-26 16:02:13,75.45658310233925,101.97301620343426,112.17265781644224,122.15968730184663,234.03742573221814
2024-05-26 16:02:13,79.9550251029724,102.45309043793745,111.77698111235404,119.05385108563975,234.09134948972056
2024-05-26 16:02:13,83.50312855849059,104.88845937037921,111.73636587682685,114.71943964253641,234.27443333212258
2024-05-26 16:02:13,88.30266048907765,108.81531651086883,110.9134164765787,113.95675323288576,234.30809419324981
2024-05-26 16:02:13,94.20795132612884,113.82604526579564,110.05662615823918,116.44636533099957,234.21380482000043
2024-05-26 16:02:13,98.3921375841737,119.32544841647443,110.38020752441417,117.46020113501964,234.2406081337192
2024-05-26 16:02:13,100.15528618273538,124.08536751301736,111.89253452267842,114.47328412910221,234.32288756580027
2024-05-26 16:02:13,102.40441310912948,127.0331967497419,113.82140203542436,110.44366464377816,234.241695694523
2024-05-26 16:02:13,107.50581959003728,128.14792212879524,115.31545650564695,109.55247977844866,234.1372018319623
2024-05-26 16:02:13,113.75485806881933,127.00118208774673,116.04794230348972,111.50167012873709,234.12565620870512
2024-05-26 16:02:13,117.49668390402157,122.5204041383965,115.87854373616187,112.36833431994219,234.06872696978306
2024-05-26 16:02:13,117.01996246980603,115.59671566974204,115.22350620876446,110.51496309282919,234.21341636541885
2024-05-26 16:02:13,114.39387424709705,110.29694093035125,115.10240645297935,108.50072948387268,234.5699425607953
2024-05-26 16:02:13,112.27114648229174,109.7409784517926,115.88646529020147,109.39383580629371,234.60531168968637
2024-05-26 16:02:13,109.51182016297108,112.40675703729882,117.58968887957545,113.35808787977146,234.40548853363984
2024-05-26 16:02:13,105.2269047702762,114.95378930303389,120.26505482996919,117.33995415308569,234.35292790661248
2024-05-26 16:02:13,102.21694984061834,115.34985712939579,123.27798579485541,118.67204197808397,234.3385640257068
2024-05-26 16:02:13,102.09697950298852,113.44267640343982,125.78055851739627,118.5141232113281,234.31098110151652
2024-05-26 16:02:13,103.1747482616655,110.49035411475465,127.39100200063933,119.72639779746783,234.41798011447074
2024-05-26 16:02:13,103.72347808951918,108.02967882444858,128.2204706273358,122.65392244182141,234.58301650867804
2024-05-26 16:02:13,103.17567538011441,107.15717561594901,128.8432067956846,125.16712289898146,234.7422289399375
2024-05-26 16:02:13,101.2149753851174,107.64113535494857,128.65756118098523,125.64000299493057,234.57058824924297
2024-05-26 16:02:13,97.2019759158888,108.63989941012468,126.02123807742504,124.47118353643165,234.18429287697313
2024-05-26 16:02:13,90.34919377872865,109.40813632576571,121.04735972921583,123.10508082346607,234.19487631847215
2024-05-26 16:02:13,81.21218865495149,109.00958957181193,115.63351944969779,122.14617398969644,234.2860031865032
2024-05-26 16:02:13,71.86192269909189,107.25189624131943,111.92379851873949,121.16405011834102,234.15841944681898
2024-05-26 16:02:13,64.81094827367873,104.88284162107749,111.26203045001601,119.75109917908782,234.0155293775351
2024-05-26 16:02:13,62.045344983470855,104.02497381123412,112.41921502349715,118.55889263692224,234.07871372265058
2024-05-26 16:02:13,63.602957282129,106.9654863171852,113.57771191060559,118.55271199725601,234.4348369888946
2024-05-26 16:02:13,68.05553053488856,113.29705377177989,114.79658788921648,119.22387699119248,234.67090575276225
2024-05-26 16:02:13,73.52044893516627,120.92242320558628,115.7090643651441,119.38404619586075,234.5166082398755
2024-05-26 16:02:13,77.76731989316833,127.68535194391758,115.57263037208592,118.78672176765568,234.37538597486804
2024-05-26 16:02:13,79.99060218059405,131.19915354227805,115.18886093756545,118.00299063813517,234.39664875909094
2024-05-26 16:02:13,82.80215631929156,130.2728589429224,115.6142622923636,117.47291253085581,234.28491068114133
2024-05-26 16:02:13,89.92804760347148,126.59063629579342,116.56407512834744,117.11428132693194,234.25644781209843
2024-05-26 16:02:13,101.65145662125934,123.29382018712037,116.66923765551306,116.72544518198377,234.41121011844004
2024-05-26 16:02:13,114.41582234836775,121.9299536361072,115.01671391436469,116.13998938378872,234.3587024789322
2024-05-26 16:02:13,124.25625419871471,122.01510584606976,112.88354760707477,115.35003201453492,234.15463654896107
2024-05-26 16:02:13,129.6013210589033,121.8357666194041,112.5906223729117,114.91788491388172,234.03715623051374
2024-05-26 16:02:13,131.42359471656792,119.56048880488247,114.66470552366471,115.19476277584225,234.12658601520883
2024-05-26 16:02:13,131.7251608341215,115.33654432408089,117.97917819126798,115.5412145255068,234.44974054154372
2024-05-26 16:02:13,132.02094110037575,110.48558562256682,121.1987562455284,115.28455545979972,234.76232662477074
2024-05-26 16:02:13,133.2720473120812,105.99518532440075,123.265683321246,114.33099059084464,234.8073271090064
2024-05-26 16:02:13,136.22049094667418,102.83584006100182,123.4523630058733,112.72255819337313,234.56984019595626
2024-05-26 16:02:13,140.22113514842778,102.40011217122436,121.43392256896092,111.16055951144918,234.40623683502278
2024-05-26 16:02:13,143.5963277776769,105.03615827800735,118.00710118985099,110.40807117211668,234.52739362463075
2024-05-26 16:02:13,145.88540022584232,107.43997435752807,114.69072304637265,108.90923166526706,234.209881352572
2024-05-26 16:02:13,148.51133637484682,111.99986662884422,112.50334915399556,111.49463661790807,233.44340993261366
2024-05-26 16:02:13,153.3105022545346,133.39355173993778,111.38648571913927,134.87389890252314,233.32986211314187
2024-05-26 16:02:13,160.42503900085563,172.12924827176687,110.57798914976787,176.36153718471036,233.7636147734324
2024-05-26 16:02:13,168.48817421504518,207.42990881407204,110.10407751303556,210.2830992646874,234.06547742120586
2024-05-26 16:02:13,176.8010428917618,229.06264980281082,110.83599447234572,228.98120771364583,234.2812335616839
2024-05-26 16:02:13,185.6903882449776,239.39111996066316,112.586344024385,238.70980956812505,234.53613970915552
2024-05-26 16:02:13,194.1407901339141,239.98418005647991,113.60764705096273,240.16679831448974,234.5472686881495
2024-05-26 16:02:13,198.42827859866668,235.19599089220443,113.0155182061489,235.5759313197138,234.3784278398951
2024-05-26 16:02:13,195.4046948385485,224.78607697169537,112.35888090451331,231.65771319165654,234.29278558111605
2024-05-26 16:02:13,186.47366683782965,196.43198096016488,113.08969805257699,232.3309504291064,233.68942343742785
2024-05-26 16:02:13,175.55733971918667,145.54730340312275,114.5789240174711,229.57634433894077,232.9871936430355
2024-05-26 16:02:13,165.52353677562053,89.35553208218322,115.89920978394893,205.4171731806987,233.26740911204544
2024-05-26 16:02:13,159.03576940896718,49.608006749175175,116.95633222590787,155.30161246943942,233.69678282861318
2024-05-26 16:02:13,158.58575172046213,35.274990339698824,117.75122886326537,100.64150957735926,233.85356238009814
2024-05-26 16:02:13,163.525362072592,43.228552562956125,118.03905739000294,63.578997452173795,234.22086316719714
2024-05-26 16:02:13,169.70724946011504,62.795560371663335,117.46546613681765,47.79050821320278,234.4734638712594
2024-05-26 16:02:13,172.99578517789948,79.85531962490637,116.29075804444733,46.71389697395065,234.38254504881098
2024-05-26 16:02:13,171.18172837400164,85.27865979757473,115.76738182390486,52.907782872992215,234.08453782974723
2024-05-26 16:02:13,163.1343629353395,81.2519343277531,116.80226737977806,60.14919226507546,233.83804116807934
2024-05-26 16:02:13,149.15017962575308,76.57390486463115,118.66676158456744,63.93293793810318,233.61373566835434
2024-05-26 16:02:13,131.26356199951766,75.96951145990394,119.59487039256555,63.203876484535435,233.4153287022293
2024-05-26 16:02:13,113.0994996018421,76.7913953119642,118.912488505247,61.094708544803694,233.53037404849633
2024-05-26 16:02:13,99.25202777048527,75.47819735586054,117.15527799713927,61.530657556786544,233.8069244442311
2024-05-26 16:02:13,92.54546266719012,73.46163652261382,114.08652266738726,65.0047470099512,234.02725872801187
2024-05-26 16:02:13,92.97803337904615,73.84756581662337,109.68149793628987,68.85224589342597,234.05397994295555
2024-05-26 16:02:13,98.3126635822696,76.39534812306417,105.30475948419368,71.27600278741139,234.09433522806523
2024-05-26 16:02:13,105.04986672413814,77.97927784355112,102.71253116181873,73.36474238238854,234.41181277232255
2024-05-26 16:02:13,110.22786904150628,76.60961008140357,102.8875418979314,76.54983169821352,234.61567867237062
2024-05-26 16:02:13,111.73165526551999,75.66674865035704,105.01953290907115,80.37670384087492,234.66144332003344
2024-05-26 16:02:13,109.09520120315926,79.70280892542198,107.84220069999618,83.15378072397557,234.754142860897
2024-05-26 16:02:13,104.68461629183632,87.6806094862435,110.76231936507895,83.87965794163321,234.7134060453801
2024-05-26 16:02:13,101.11375688685374,94.63439964168049,112.9735913144354,83.90875371888825,234.4398693697529
2024-05-26 16:02:13,98.37151320553396,97.31225681318848,113.79812146106471,85.4036871356029,234.04679111793007
2024-05-26 16:02:13,95.29755739745247,97.25268318436156,113.17009192537144,88.11774424388686,233.7922671508633
2024-05-26 16:02:13,91.31174248285373,97.95472363717798,111.65188946077637,89.83318377536719,233.86737632575517
2024-05-26 16:02:13,86.03109671217807,99.96223356356366,110.54289613158511,89.55281818834246,234.10050237444034
2024-05-26 16:02:13,79.37018733864099,101.28756266285941,109.91864344343236,88.41258082351946,234.1673740531685
2024-05-26 16:02:13,72.51206456552276,100.97408868956617,108.78148493573225,87.78791619338814,234.00462900490425
2024-05-26 16:02:13,68.00404588784771,100.16812944710446,108.00624371208919,87.85761584229661,233.97996730246186
2024-05-26 16:02:13,67.79803569681255,100.50702820958676,108.87507448404904,87.94131977978667,234.61485785185843
2024-05-26 16:02:13,71.6543581158613,102.19312665377112,111.42735012320576,87.35462541364556,235.36538898371379
2024-05-26 16:02:13,82.0460263121521,101.10026524038253,115.6809210918783,86.27782727944772,235.23025092730404
2024-05-26 16:02:13,100.09687237622268,94.56205804849078,119.69749004448269,84.67642839776585,234.6125217708443
2024-05-26 16:02:13,118.42273931883659,89.42319896437553,119.44722884654321,82.24521605056201,234.30563633779133
2024-05-26 16:02:13,131.6887346003556,91.12367691628053,114.59868207091365,80.47715457839138,234.40732073581205
2024-05-26 16:02:13,139.60369272142992,96.2178382343993,109.28780390170182,80.76471416645687,234.55388852213324
2024-05-26 16:02:13,141.77368697650462,100.2542670591504,107.02166810763816,82.16315643840922,234.4771766418773
2024-05-26 16:02:13,138.55472541543458,101.87223866001574,108.47297937413583,82.65558121130344,233.81231175797276
2024-05-26 16:02:13,131.4694895352642,101.66974934688207,112.05653247416632,81.67009642180747,232.8336096787962
2024-05-26 16:02:13,121.73430263879914,100.79572846579029,115.60082811322582,80.72021728414445,232.7042164939282
2024-05-26 16:02:13,109.56362966097626,99.77889693332804,117.53731652793262,81.13776732636111,233.19178163053894
2024-05-26 16:02:13,96.52025753904874,98.57570086561276,117.95267561135053,82.60886612009892,233.745192047606
2024-05-26 16:02:13,86.19548771443401,97.86051553775107,118.91588335973852,83.97845296675159,234.33285627786205
2024-05-26 16:02:13,81.42860613293911,99.2722339325887,121.92195993228661,84.96097644526598,234.51518275377188
2024-05-26 16:02:13,81.82858108993119,103.35353400249122,125.98257071353085,86.61940675004595,234.40251948271492
2024-05-26 16:02:13,84.13332183737865,108.42681093802251,128.04441962168215,89.75835296505328,234.31060743702972
2024-05-26 16:02:13,84.83761615495602,112.81202423946857,125.63014757869898,93.57182545646911,234.3152114608202
2024-05-26 16:02:13,82.98529980485874,116.19266632065325,119.77984326742404,96.53196765014374,233.72188303582323
2024-05-26 16:02:13,80.94107779670148,119.10081238877628,114.1964264125422,98.4271583435846,232.5449630284407
2024-05-26 16:02:13,82.62400001646361,122.00790935659353,111.7376995897507,100.20292082968241,232.39590268944838
2024-05-26 16:02:13,89.72960136077722,124.43516999995283,112.48604445915255,102.29803766881746,232.96702371650096
2024-05-26 16:02:13,99.75682339751447,125.58355379834981,114.17181937976375,104.38985592383455,233.35645057923983
2024-05-26 16:02:13,109.3267850809892,124.62584661614017,114.51365251299045,106.10145059784058,233.97536926869194
2024-05-26 16:02:13,117.76262562753249,122.12098719402049,114.02381845075624,107.57363848430356,234.60623016956717
2024-05-26 16:02:13,125.10789766952513,120.17539501270791,114.36598079709454,109.12896135476723,234.59060525046286
2024-05-26 16:02:13,129.84507876031367,118.90286734624989,115.23215519074206,110.69144082907101,234.10894167259758
2024-05-26 16:02:13,131.41897289940917,117.21366499504757,115.34638161132551,111.70459368236885,233.94701227836882
2024-05-26 16:02:13,130.89862358258083,115.36451248897667,114.5398943268719,111.86329242671933,233.620546515358
2024-05-26 16:02:13,128.64043879129238,113.60785933711254,113.78308785899509,111.65334032460537,232.8317832083838
2024-05-26 16:02:13,125.49981132936878,110.9045032526667,113.68450754065094,111.65128101710506,232.771544864161
2024-05-26 16:02:13,124.0597633613663,107.1430070107598,113.90903151810441,111.7300245322908,233.17758695925934
2024-05-26 16:02:13,125.54557305047622,104.78695847026658,114.26414343694469,111.4085511438978,233.40694369451816
2024-05-26 16:02:13,128.24884097873579,105.44470630097338,115.0965239050361,110.78417088063834,233.81539694666648
2024-05-26 16:02:13,130.67565149462305,108.723038753317,116.35689644261049,110.54539400374294,234.25186095813982
2024-05-26 16:02:13,133.34013959557498,113.61161966716895,117.6477634747275,111.30539755139631,234.2955870280957
2024-05-26 16:02:13,137.1349181500088,117.74752089838535,119.26394225868364,112.94355310366319,233.96680974232422
2024-05-26 16:02:13,142.34611530430394,120.06713499558543,121.45333610059967,114.58271537912476,233.85885869063608
2024-05-26 16:02:13,149.37002100136132,121.90907590399169,123.45889473682084,115.63848143408848,234.33087358210878
2024-05-26 16:02:13,158.14941844017778,123.44241126298417,124.35676753718955,116.26273976307914,234.8034342354049
2024-05-26 16:02:13,167.23900157729918,123.50038323077216,123.3297923285126,116.61936389056781,234.68775952770187
2024-05-26 16:02:13,175.61604563161944,122.00016587342884,120.12382741691029,116.6226243573232,234.35970274818033
2024-05-26 16:02:13,181.28417548101046,120.02936422096828,116.30432237900638,116.11730267732415,234.2372765354137
2024-05-26 16:02:13,180.12780748527197,118.15476772491198,113.68952773290141,115.31729303087354,234.33233490708102
2024-05-26 16:02:13,171.19053784845917,116.786797878698,112.43688554072618,114.93102245087452,234.55076544114638
2024-05-26 16:02:13,157.76454144871883,116.58880845903033,111.79013757066889,115.22613521243498,234.52112121777247
2024-05-26 16:02:13,143.70457605143014,117.69504457306483,111.70115482648133,115.95095835854377,234.20946906808442
2024-05-26 16:02:13,132.87044934678264,120.38098257326016,112.98998614112591,117.00670984720763,233.95448488740567
2024-05-26 16:02:13,127.49995929135002,123.81633200116926,115.23356135074371,118.18807001964656,234.1610744659168
2024-05-26 16:02:13,125.81357289105125,125.27494273940087,116.56239690321063,118.97873062018519,234.6674370392615
2024-05-26 16:02:13,124.57015349898884,122.77530763747069,116.28222684960653,119.11364409662991,234.71133050510102
2024-05-26 16:02:13,122.41768820677508,116.54315701560076,115.00306409498299,118.93395215252822,234.37892713929946
2024-05-26 16:02:13,120.82928014009516,108.67584031961805,113.00246041813085,118.8595826817249,234.11600097960275
2024-05-26 16:02:13,122.60050517512963,103.05508929439841,111.34162296579753,118.98750750606035,234.09715005772463
2024-05-26 16:02:13,128.32007975677683,103.67943177113536,111.7270539151413,119.2681028933981,234.27253135061065
2024-05-26 16:02:13,135.55620471327904,110.07915189939308,114.27243636152687,119.66718259422915,234.3097276290632
2024-05-26 16:02:13,141.1205803677982,117.9172523207418,117.66093420055437,120.02017101332768,234.21135617508736
2024-05-26 16:02:13,142.0447417185452,124.26006788257827,120.28107712607822,120.13241623598438,234.10725806245892
2024-05-26 16:02:13,136.7793747184413,128.27520271565982,121.25717272114908,120.05609553517598,234.11934846976322
2024-05-26 16:02:13,126.73231082439358,130.30316345582068,120.479479113321,119.91099225221836,234.25978620967334
2024-05-26 16:02:13,114.80629407038927,131.37721908762566,117.53435874885012,119.9076244462619,234.28079719822873
2024-05-26 16:02:13,103.215762231653,131.64117566936193,112.7625400393314,120.29460828196869,234.20974385744185
2024-05-26 16:02:13,93.39658603589513,129.96653643048293,108.60667921471229,121.11561465021016,234.13458818091536
2024-05-26 16:02:13,86.86430429224403,125.70166723123124,106.88103295662415,121.88584159833215,234.01162869765
2024-05-26 16:02:13,84.38417887156062,120.94388319580636,106.36134248727797,121.98822603210667,233.920930363798
2024-05-26 16:02:13,84.86358557851818,118.42322282541237,105.49744589447033,121.57539827652394,233.9457262858495
2024-05-26 16:02:13,87.3128948214914,118.19771504349912,104.82486406098513,121.1215927695608,234.03426464044514
2024-05-26 16:02:13,91.46666641381302,119.59511542218594,105.51957417386342,120.84951924274365,234.19118773962018
2024-05-26 16:02:13,95.4929405726096,121.92674475884397,107.90868772795262,120.7427050272317,234.3322593579474
2024-05-26 16:02:13,97.69997786083343,123.82860507746892,111.75138975091276,120.74399189765789,234.13126286915318
2024-05-26 16:02:13,98.67175340811951,125.13916103255919,116.1345841523462,121.07720762239956,233.8103823865123
2024-05-26 16:02:13,99.2040583948473,126.82697024163335,118.7286932187101,121.61903338913125,233.80394653115042
2024-05-26 16:02:13,98.97830496513328,129.3258057751949,117.74100233172419,122.0008097672832,233.89320758664525
2024-05-26 16:02:13,97.90135192128135,131.94702364248948,114.83095853449335,122.45535217383014,233.88095554060422
2024-05-26 16:02:13,98.22769570736905,133.72888504080038,112.93671031570695,123.0969478110814,233.78139581024527
2024-05-26 16:02:13,102.41844879293475,134.20254129723304,112.80179964806597,123.58657959752506,233.68846783766088
2024-05-26 16:02:13,109.1239014423963,133.23597637732377,113.5289623874821,123.64114497414977,233.77391548603666
2024-05-26 16:02:13,114.6222944631621,130.89047582829903,114.4145296127508,123.2310754159202,233.8667015359764
2024-05-26 16:02:13,115.75274314497037,126.65660920406651,115.29580240620626,122.60414757584394,233.73530884640695
2024-05-26 16:02:13,111.13685865401636,120.45508236902747,115.79043289706273,121.97683198901787,233.5929869741375
2024-05-26 16:02:13,102.35035945495153,113.5374388698292,116.28438134064551,121.3975964075011,233.85705649165064
2024-05-26 16:02:13,92.81730255353617,106.99881219694228,118.00173917759031,120.71297318579768,234.2468185616329
2024-05-26 16:02:13,85.50096754346816,101.78695700981775,120.33117071683643,119.77479124184481,234.24355393320945
2024-05-26 16:02:13,81.8802921615109,98.82128998107464,121.26427172753935,119.0700327957926,233.58221879064092
2024-05-26 16:02:13,81.76907801798416,98.62505386625195,120.56346439921262,119.44193052354947,232.76373555269782
2024-05-26 16:02:13,84.70215823469898,100.3898241132407,119.72483044448335,120.95226116673771,232.83517513869188
2024-05-26 16:02:13,90.67098597384582,101.9907398366729,119.46707960890677,122.61191257676796,233.3322304245774
2024-05-26 16:02:13,98.72156116341267,102.60018438958791,119.37724443118941,123.40574028085477,233.5918015839772
2024-05-26 16:02:14,107.23207216879635,102.85011020751874,118.6690687394771,123.34695638933339,233.99721570719507
2024-05-26 16:02:14,115.1278151505103,103.74727849066159,116.84946095879081,123.18366279003976,234.47586469643838
2024-05-26 16:02:14,120.80858324575541,105.97854445976154,114.5681980686643,123.43677783639569,234.6294121665684
2024-05-26 16:02:14,122.62341563935685,109.56674413510623,113.2954831858534,124.14150524507978,234.4936045122328
2024-05-26 16:02:14,121.22850771179176,114.65391690168894,114.35007741014809,125.19420248649826,234.36502953507116
2024-05-26 16:02:14,119.6703609625504,120.24217059236491,116.84803601569199,126.29455779306535,234.0541412262103
2024-05-26 16:02:14,120.18449125599395,124.2618439369643,118.50277442892407,126.88885686450088,233.608602869094
2024-05-26 16:02:14,122.1315778814906,125.96169670601714,119.20262099943132,126.85382486687575,233.80478664032546
2024-05-26 16:02:14,123.5586690120362,125.60111330276521,119.63212569149131,126.48922066516671,234.17070320062496
2024-05-26 16:02:14,122.828794565348,123.96626762850369,119.55049771487977,126.19032440064586,234.1135306336607
2024-05-26 16:02:14,119.55852181138933,122.04497792842552,119.02300419309707,126.12943744525677,234.1276924267258
2024-05-26 16:02:14,114.7978645911862,119.62436694706906,117.9541804083673,126.05404444179166,234.25612690385935
2024-05-26 16:02:14,110.02108241998083,116.48305488314138,115.74688175584072,125.69728564189329,234.17795235762867
2024-05-26 16:02:14,106.04144479779836,113.97118547297904,112.45611895810379,125.15402824330945,234.04766556977154
2024-05-26 16:02:14,102.9526344266022,113.52571051991299,109.27938098156214,124.77489691848562,234.12837852706528
2024-05-26 16:02:14,101.14865510295697,114.18391848381076,107.4401589570055,124.62815430987453,234.0097573403189
2024-05-26 16:02:14,101.9658964582884,114.12829346066258,107.50030802688111,124.49217920362055,233.6640497740717
2024-05-26 16:02:14,105.18914958365198,113.45487473909752,109.41327638810438,124.02991560500351,233.59162128945204
2024-05-26 16:02:14,108.58254653449501,112.71766102205137,112.17746840994143,123.22670059579433,233.61904314874812
2024-05-26 16:02:14,110.57434720410498,112.42534358018374,114.73064373850455,122.43361205046754,233.64584353458253
2024-05-26 16:02:14,109.88166854172502,112.52055295714517,116.41133473442727,121.49337447842598,233.89321928392866
2024-05-26 16:02:14,106.03090012776589,111.89130662558662,116.8520056808139,119.88270104263276,234.18010684628464
2024-05-26 16:02:14,101.07235847958579,110.94769062322088,117.11360837686397,118.14536048006167,234.1922622240798
2024-05-26 16:02:14,97.57900325691479,110.26013639628405,118.7148892478053,116.4738587103982,233.9597934317722
2024-05-26 16:02:14,96.56975528366823,109.28237835435269,121.10417325912161,113.85415964875014,233.812346481982
2024-05-26 16:02:14,98.40467497185622,114.20517300463179,122.79830244597912,117.8579308534782,234.18076735256125
2024-05-26 16:02:14,102.72158308239105,138.81696622409365,123.42676660622422,143.14278199860638,234.90196035011817
2024-05-26 16:02:14,108.44069314660646,178.97501464897042,123.14505565598418,182.92122316791782,235.209561649496
2024-05-26 16:02:14,115.91835792741905,212.08541701235657,122.5647171382007,213.90198813949854,235.07821345185096
2024-05-26 16:02:14,126.04286454232877,230.9887451786988,122.58525185192403,230.47272745184932,234.85095809809997
2024-05-26 16:02:14,137.03942749707767,240.07338977551385,123.52233130813708,238.13704600572757,234.55810843815144
2024-05-26 16:02:14,145.27783511869086,240.136757599262,125.0518223006279,238.57713832757972,234.30198751996045
2024-05-26 16:02:14,148.09026197357915,235.1400551455592,126.21281305184459,234.74660257427428,234.10271712954315
2024-05-26 16:02:14,145.1817420118653,227.49902498797422,126.06332818790867,232.1880071812813,233.93997551260634
2024-05-26 16:02:14,138.8747144319262,207.05875875647675,124.18702480394062,233.69782023646349,233.90014025307417
2024-05-26 16:02:14,132.3298994679647,164.8158732551463,120.50286773858622,231.99897192143317,234.36633306159834
2024-05-26 16:02:14,127.7957504679927,112.15830357961845,116.06632386943794,209.57787105901824,235.0499236535466
2024-05-26 16:02:14,126.37208645933342,69.81228264623631,113.29371088413434,160.0671450437161,235.10858863107907
2024-05-26 16:02:14,127.46321981402563,49.237505695590784,112.95216915153483,104.33326286092657,234.8081514053575
2024-05-26 16:02:14,129.27391087849747,49.95002508099631,113.29965170767089,65.95761438434523,234.6401518177974
2024-05-26 16:02:14,130.19836090213596,62.81509668339279,113.56061900056459,48.37727849031648,234.42349212416764
