Timestamp,Channel_1
2024-05-23 12:57:14,0.0014321983542280486
2024-05-23 12:57:14,0.0346925267890605
2024-05-23 12:57:14,0.27015650353579856
2024-05-23 12:57:14,1.1683804704335503
2024-05-23 12:57:14,3.4256584377585586
2024-05-23 12:57:14,7.579559498751348
2024-05-23 12:57:14,13.567864339103512
2024-05-23 12:57:14,20.643053992430676
2024-05-23 12:57:14,27.672781175781274
2024-05-23 12:57:14,33.55293795441066
2024-05-23 12:57:14,37.50815148509637
2024-05-23 12:57:14,39.23157272702926
2024-05-23 12:57:14,38.898637578819546
2024-05-23 12:57:14,37.08414242565285
2024-05-23 12:57:14,34.59919854363596
2024-05-23 12:57:14,32.27174151454906
2024-05-23 12:57:14,30.719291572626084
2024-05-23 12:57:14,30.191895234029914
2024-05-23 12:57:14,30.555865717165595
2024-05-23 12:57:14,31.41999262861166
2024-05-23 12:57:14,32.32548042400855
2024-05-23 12:57:14,32.90432011205475
2024-05-23 12:57:14,32.960618520224784
2024-05-23 12:57:14,32.486861411540175
2024-05-23 12:57:14,31.645233475182376
2024-05-23 12:57:14,30.71862018231942
2024-05-23 12:57:14,30.015559055494762
2024-05-23 12:57:14,29.748043042433796
2024-05-23 12:57:14,29.949435264063883
2024-05-23 12:57:14,30.48916261742844
2024-05-23 12:57:14,31.179146594307586
2024-05-23 12:57:14,31.909389541989906
2024-05-23 12:57:14,32.734090198383434
2024-05-23 12:57:14,33.8571066394598
2024-05-23 12:57:14,35.53744067883031
2024-05-23 12:57:14,38.02893888571794
2024-05-23 12:57:14,41.61597837593719
2024-05-23 12:57:14,46.58595121210549
2024-05-23 12:57:14,52.99233428306903
2024-05-23 12:57:14,60.3957444715518
2024-05-23 12:57:14,67.87438400841135
2024-05-23 12:57:14,74.3170504882798
2024-05-23 12:57:14,78.7994188260406
2024-05-23 12:57:14,80.87098087320618
2024-05-23 12:57:14,80.66647117677012
2024-05-23 12:57:14,78.81903930002827
2024-05-23 12:57:14,76.22468318073254
2024-05-23 12:57:14,73.76798439472145
2024-05-23 12:57:14,72.10645691804059
2024-05-23 12:57:14,71.54626770611715
2024-05-23 12:57:14,72.01155487558646
2024-05-23 12:57:14,73.12129027095527
2024-05-23 12:57:14,74.37468427083385
2024-05-23 12:57:14,75.38189757307931
2024-05-23 12:57:14,76.01871311618659
2024-05-23 12:57:14,76.41529973048364
2024-05-23 12:57:14,76.8105095146463
2024-05-23 12:57:14,77.39822605139777
2024-05-23 12:57:14,78.25818594800633
2024-05-23 12:57:14,79.35800606577274
2024-05-23 12:57:14,80.57277824570748
2024-05-23 12:57:14,81.71136916414547
2024-05-23 12:57:14,82.57704896554847
2024-05-23 12:57:14,83.06789047090109
2024-05-23 12:57:14,83.25900837025159
2024-05-23 12:57:14,83.38167741776911
2024-05-23 12:57:14,83.68277450514611
2024-05-23 12:57:14,84.2589441187584
2024-05-23 12:57:14,84.98862836645044
2024-05-23 12:57:14,85.59823400422957
2024-05-23 12:57:14,85.79794634685722
2024-05-23 12:57:14,85.39953283478853
2024-05-23 12:57:14,84.37415880401923
2024-05-23 12:57:14,82.8575885811054
2024-05-23 12:57:14,81.11743971470541
2024-05-23 12:57:14,79.48661649871838
2024-05-23 12:57:14,78.27841721838121
2024-05-23 12:57:14,77.71248565305287
2024-05-23 12:57:14,77.87058967177809
2024-05-23 12:57:14,78.68978469641598
2024-05-23 12:57:14,79.99917512050045
2024-05-23 12:57:14,81.58935191269076
2024-05-23 12:57:14,83.27560442265812
2024-05-23 12:57:14,84.91417421522853
2024-05-23 12:57:14,86.36838092083914
2024-05-23 12:57:14,87.4760322986547
2024-05-23 12:57:14,88.08343641877941
2024-05-23 12:57:14,88.14498223080695
2024-05-23 12:57:14,87.80180625121194
2024-05-23 12:57:14,87.35298189982608
2024-05-23 12:57:14,87.12343541996913
2024-05-23 12:57:14,87.31892700833903
2024-05-23 12:57:14,87.96748015811414
2024-05-23 12:57:14,88.98148818091691
2024-05-23 12:57:14,90.28362466508361
2024-05-23 12:57:14,91.88802359643702
2024-05-23 12:57:14,93.86218428100973
2024-05-23 12:57:14,96.19964436455184
2024-05-23 12:57:14,98.71916021619418
2024-05-23 12:57:14,101.0852849065294
2024-05-23 12:57:14,102.94405043183113
2024-05-23 12:57:14,104.09046821973861
2024-05-23 12:57:14,104.57396932205262
2024-05-23 12:57:14,104.6741744183817
2024-05-23 12:57:14,104.74498746378208
2024-05-23 12:57:14,105.02404135157224
2024-05-23 12:57:14,105.53535168417817
2024-05-23 12:57:14,106.12249373255524
2024-05-23 12:57:14,106.54754471340861
2024-05-23 12:57:14,106.58387133278913
2024-05-23 12:57:14,106.0822668978261
2024-05-23 12:57:14,105.0162213255518
2024-05-23 12:57:14,103.50583212057005
2024-05-23 12:57:14,101.8117336259239
2024-05-23 12:57:14,100.28396109773533
2024-05-23 12:57:14,99.25998299102226
2024-05-23 12:57:14,98.94817933440162
2024-05-23 12:57:14,99.36535762335174
2024-05-23 12:57:14,100.37449974732883
2024-05-23 12:57:14,101.81693193108569
2024-05-23 12:57:14,103.67274271512102
2024-05-23 12:57:14,106.12311105364114
2024-05-23 12:57:14,109.40820141564517
2024-05-23 12:57:14,113.52440063208844
2024-05-23 12:57:14,117.98523250737617
2024-05-23 12:57:14,121.88931971179984
2024-05-23 12:57:14,124.30127805757603
2024-05-23 12:57:14,124.67700917235909
2024-05-23 12:57:14,123.06771011276179
2024-05-23 12:57:14,120.05870625107217
2024-05-23 12:57:14,116.54406219210153
2024-05-23 12:57:14,113.43388695618967
2024-05-23 12:57:14,111.37801424605173
2024-05-23 12:57:14,110.62144270200336
2024-05-23 12:57:14,111.0937161186175
2024-05-23 12:57:14,112.67867892601477
2024-05-23 12:57:14,115.39541907217814
2024-05-23 12:57:14,119.25714806898331
2024-05-23 12:57:14,123.93653081464976
2024-05-23 12:57:14,128.60257653580794
2024-05-23 12:57:14,132.11034188194458
2024-05-23 12:57:14,133.42115953075165
2024-05-23 12:57:14,132.02384908868103
2024-05-23 12:57:14,128.17884193759886
2024-05-23 12:57:14,122.8922908833866
2024-05-23 12:57:14,117.5960501124518
2024-05-23 12:57:14,113.58408108438437
2024-05-23 12:57:14,111.39879112956113
2024-05-23 12:57:14,110.4931555470973
2024-05-23 12:57:14,109.4007856321324
2024-05-23 12:57:14,106.33877308238331
2024-05-23 12:57:14,99.94308502216714
2024-05-23 12:57:14,89.8459082859208
2024-05-23 12:57:14,76.91942535835263
2024-05-23 12:57:14,63.11370812919
2024-05-23 12:57:14,50.93079589708533
2024-05-23 12:57:14,42.71511118361076
2024-05-23 12:57:14,40.01699705964936
2024-05-23 12:57:14,43.23134963306227
2024-05-23 12:57:14,51.580693450536465
2024-05-23 12:57:14,63.401895133248445
2024-05-23 12:57:14,76.63144778225387
2024-05-23 12:57:14,89.33556089181278
2024-05-23 12:57:14,100.11183537454465
2024-05-23 12:57:14,108.24901380149659
2024-05-23 12:57:14,113.65732654114512
2024-05-23 12:57:14,116.68016879660051
2024-05-23 12:57:14,117.89709776394669
2024-05-23 12:57:14,117.96097749903244
2024-05-23 12:57:14,117.46567768119483
2024-05-23 12:57:14,116.84970457821478
2024-05-23 12:57:14,116.3607190394322
2024-05-23 12:57:14,116.08760854262465
2024-05-23 12:57:14,116.02541865589384
2024-05-23 12:57:14,116.12602954168284
2024-05-23 12:57:14,116.31980080956268
2024-05-23 12:57:14,116.52899773483595
2024-05-23 12:57:14,116.69093929109057
2024-05-23 12:57:14,116.7802510297601
2024-05-23 12:57:14,116.80912073903173
2024-05-23 12:57:14,116.8155535688255
2024-05-23 12:57:14,116.89640181485382
2024-05-23 12:57:14,117.30320714771749
2024-05-23 12:57:14,118.46613388231854
2024-05-23 12:57:14,120.78268358881203
2024-05-23 12:57:14,124.24962849446658
2024-05-23 12:57:14,128.20769250426167
2024-05-23 12:57:14,131.3623754872205
2024-05-23 12:57:14,132.07406506086525
2024-05-23 12:57:14,128.84023656819593
2024-05-23 12:57:14,120.8067453917277
2024-05-23 12:57:14,108.07873287191816
2024-05-23 12:57:14,91.69762637482386
2024-05-23 12:57:15,73.3582844203139
2024-05-23 12:57:15,55.09049655156867
2024-05-23 12:57:15,39.05205202969826
2024-05-23 12:57:15,27.320090165733152
2024-05-23 12:57:15,21.523336961596115
2024-05-23 12:57:15,22.429932556993037
2024-05-23 12:57:15,29.73145854719525
2024-05-23 12:57:15,42.106986413111116
2024-05-23 12:57:15,57.52650604783547
2024-05-23 12:57:15,73.72098586290284
2024-05-23 12:57:15,88.68373217067361
2024-05-23 12:57:15,101.02897662836816
2024-05-23 12:57:15,110.10916871227359
2024-05-23 12:57:15,115.9267221431869
2024-05-23 12:57:15,118.94772990281211
2024-05-23 12:57:15,119.89882241480977
2024-05-23 12:57:15,119.57468609611999
2024-05-23 12:57:15,118.67223352120836
2024-05-23 12:57:15,117.685673664965
2024-05-23 12:57:15,116.88901877525846
2024-05-23 12:57:15,116.38705781028288
2024-05-23 12:57:15,116.18123327827587
2024-05-23 12:57:15,116.21280907396579
2024-05-23 12:57:15,116.38831140111787
2024-05-23 12:57:15,116.60860837727012
2024-05-23 12:57:15,116.8014024601304
2024-05-23 12:57:15,116.93614801356163
2024-05-23 12:57:15,117.01207643492918
2024-05-23 12:57:15,117.03670960519453
2024-05-23 12:57:15,117.01708438461937
2024-05-23 12:57:15,116.96499637874231
2024-05-23 12:57:15,116.89898375811991
2024-05-23 12:57:15,116.8282928715601
2024-05-23 12:57:15,116.72374426065404
2024-05-23 12:57:15,116.49914927139014
2024-05-23 12:57:15,116.01884052635614
2024-05-23 12:57:15,115.11965629082982
2024-05-23 12:57:15,113.64118249956026
2024-05-23 12:57:15,111.49374211265682
2024-05-23 12:57:15,108.773190891208
2024-05-23 12:57:15,105.83925304519495
2024-05-23 12:57:15,103.24066727352213
2024-05-23 12:57:15,101.48777143699365
2024-05-23 12:57:15,100.82846334424318
2024-05-23 12:57:15,101.19180163546676
2024-05-23 12:57:15,102.30935856810278
2024-05-23 12:57:15,103.87803562466203
2024-05-23 12:57:15,105.63477337497486
2024-05-23 12:57:15,107.34105961276664
2024-05-23 12:57:15,108.77251700015513
2024-05-23 12:57:15,109.77197821504431
2024-05-23 12:57:15,110.31912201746658
2024-05-23 12:57:15,110.5451382597371
2024-05-23 12:57:15,110.6799256841141
2024-05-23 12:57:15,110.95342268595317
2024-05-23 12:57:15,111.48530949929564
2024-05-23 12:57:15,112.23142730367175
2024-05-23 12:57:15,113.03743827982751
2024-05-23 12:57:15,113.75206028664249
2024-05-23 12:57:15,114.29912593337613
2024-05-23 12:57:15,114.67223316222773
2024-05-23 12:57:15,114.90074430420829
2024-05-23 12:57:15,115.03603482490071
2024-05-23 12:57:15,115.14923786381937
2024-05-23 12:57:15,115.30926988094213
2024-05-23 12:57:15,115.54626084120171
2024-05-23 12:57:15,115.83814290836368
2024-05-23 12:57:15,116.13715028785853
2024-05-23 12:57:15,116.40757541513847
2024-05-23 12:57:15,116.63734637968122
2024-05-23 12:57:15,116.82231198945469
2024-05-23 12:57:15,116.95324931003871
2024-05-23 12:57:15,117.02377877254992
2024-05-23 12:57:15,117.04442629109268
2024-05-23 12:57:15,117.0399000877846
2024-05-23 12:57:15,117.03084678376118
2024-05-23 12:57:15,117.02215343121715
2024-05-23 12:57:15,117.010045668708
2024-05-23 12:57:15,116.99559787788128
2024-05-23 12:57:15,116.98607958874237
2024-05-23 12:57:15,116.98381854356806
2024-05-23 12:57:15,116.97925348665639
2024-05-23 12:57:15,116.95874443894468
2024-05-23 12:57:15,116.91803673703018
2024-05-23 12:57:15,116.86563201924734
2024-05-23 12:57:15,116.81394599950315
2024-05-23 12:57:15,116.77023579859598
2024-05-23 12:57:15,116.73655989649588
2024-05-23 12:57:15,116.7148764641134
2024-05-23 12:57:15,116.70683981072266
2024-05-23 12:57:15,116.70349984341651
2024-05-23 12:57:15,116.67174544888114
2024-05-23 12:57:15,116.5544067312123
2024-05-23 12:57:15,116.30164369981415
2024-05-23 12:57:15,115.93283750282532
2024-05-23 12:57:15,115.58651009652515
2024-05-23 12:57:15,115.48556077692164
2024-05-23 12:57:15,115.79522504069247
2024-05-23 12:57:15,116.47003395528613
2024-05-23 12:57:15,117.23502406993164
2024-05-23 12:57:15,117.73682403156972
2024-05-23 12:57:15,117.74199589294028
2024-05-23 12:57:15,117.2328630113671
2024-05-23 12:57:15,116.38177235673228
2024-05-23 12:57:15,115.50455283807055
2024-05-23 12:57:15,115.03487848279143
2024-05-23 12:57:15,115.42071830396642
2024-05-23 12:57:15,116.88297600097165
2024-05-23 12:57:15,119.18335505282793
2024-05-23 12:57:15,121.62338695627331
2024-05-23 12:57:15,123.3154846946112
2024-05-23 12:57:15,123.544439692725
2024-05-23 12:57:15,122.00458944231934
2024-05-23 12:57:15,118.83145076952091
2024-05-23 12:57:15,114.47788761672663
2024-05-23 12:57:15,109.53078305748404
2024-05-23 12:57:15,104.5537451115736
2024-05-23 12:57:15,100.00639979549649
2024-05-23 12:57:15,96.23798352929185
2024-05-23 12:57:15,93.50510641876703
2024-05-23 12:57:15,91.95771074405441
2024-05-23 12:57:15,91.58651207312998
2024-05-23 12:57:15,92.18798193242185
2024-05-23 12:57:15,93.40720153255305
2024-05-23 12:57:15,94.85765510637347
2024-05-23 12:57:15,96.25923168693443
2024-05-23 12:57:15,97.52528514022694
2024-05-23 12:57:15,98.75449040260679
2024-05-23 12:57:15,100.12558544403997
2024-05-23 12:57:15,101.74704236815771
2024-05-23 12:57:15,103.56486886637941
2024-05-23 12:57:15,105.43533322709536
2024-05-23 12:57:15,107.3412438256414
2024-05-23 12:57:15,109.51975926787948
2024-05-23 12:57:15,112.28403291215096
2024-05-23 12:57:15,115.6500322477971
2024-05-23 12:57:15,119.11608996464663
2024-05-23 12:57:15,121.80748178745385
2024-05-23 12:57:15,122.88926533580369
2024-05-23 12:57:15,121.96632247411725
2024-05-23 12:57:15,119.24485830491223
2024-05-23 12:57:15,115.42421030072572
2024-05-23 12:57:15,111.43581184085876
2024-05-23 12:57:15,108.16872236447507
2024-05-23 12:57:15,106.25844934614406
2024-05-23 12:57:15,105.95078457970818
2024-05-23 12:57:15,107.05564197712913
2024-05-23 12:57:15,109.03523200553941
2024-05-23 12:57:15,111.21988121701825
2024-05-23 12:57:15,113.04863463824155
2024-05-23 12:57:15,114.2198323437383
2024-05-23 12:57:15,114.71370932693554
2024-05-23 12:57:15,114.71825214657036
2024-05-23 12:57:15,114.51152055793308
2024-05-23 12:57:15,114.35494058216658
2024-05-23 12:57:15,114.44071403231708
2024-05-23 12:57:15,114.90447983064847
2024-05-23 12:57:15,115.87008311932365
2024-05-23 12:57:15,117.4443948094121
2024-05-23 12:57:15,119.59420677810105
2024-05-23 12:57:15,121.9852305357968
2024-05-23 12:57:15,123.98335424457426
2024-05-23 12:57:15,124.89778797069819
2024-05-23 12:57:15,124.31519086893715
2024-05-23 12:57:15,122.30617863641558
2024-05-23 12:57:15,119.40724142301286
2024-05-23 12:57:15,116.44360569969155
2024-05-23 12:57:15,114.32513011207878
2024-05-23 12:57:15,113.86799177877313
2024-05-23 12:57:15,115.58295997141634
2024-05-23 12:57:15,119.39360082411527
2024-05-23 12:57:15,124.4133775317517
2024-05-23 12:57:15,129.0396054266815
2024-05-23 12:57:15,131.49525171764282
2024-05-23 12:57:15,130.60037829871192
2024-05-23 12:57:15,126.3271881379607
2024-05-23 12:57:15,119.81384852774129
2024-05-23 12:57:15,112.84838635221166
2024-05-23 12:57:15,107.128491480833
2024-05-23 12:57:15,103.6907823126431
2024-05-23 12:57:15,102.74584079675273
2024-05-23 12:57:15,103.87377489103109
2024-05-23 12:57:15,106.34990018766497
2024-05-23 12:57:15,109.40315202512068
2024-05-23 12:57:15,112.36638972557095
2024-05-23 12:57:15,114.77107893368421
2024-05-23 12:57:15,116.40623462450898
2024-05-23 12:57:15,117.30540819282264
2024-05-23 12:57:15,117.64930535630113
2024-05-23 12:57:15,117.64429593795576
2024-05-23 12:57:15,117.45461816838574
2024-05-23 12:57:15,117.20187443741034
2024-05-23 12:57:15,116.98099762050609
2024-05-23 12:57:15,116.85151305306444
2024-05-23 12:57:15,116.81941738079009
2024-05-23 12:57:15,116.84703659915286
2024-05-23 12:57:15,116.89165723799172
2024-05-23 12:57:15,116.93500467256166
2024-05-23 12:57:15,116.97781625949561
2024-05-23 12:57:15,117.01713403542375
2024-05-23 12:57:15,117.03983014463303
2024-05-23 12:57:15,117.03750249838706
2024-05-23 12:57:15,117.01787498586876
2024-05-23 12:57:15,116.99565144490016
2024-05-23 12:57:15,116.9758047382827
2024-05-23 12:57:15,116.95164939667005
2024-05-23 12:57:15,116.9183719963609
2024-05-23 12:57:15,116.88474187417545
2024-05-23 12:57:15,116.8851485484899
2024-05-23 12:57:15,117.01710324223276
2024-05-23 12:57:15,117.48667369268672
2024-05-23 12:57:15,118.5774901173525
2024-05-23 12:57:15,120.49887839850369
2024-05-23 12:57:15,123.21041222370786
2024-05-23 12:57:15,126.38435399017241
2024-05-23 12:57:15,129.54352448901025
2024-05-23 12:57:15,132.24163840676871
2024-05-23 12:57:15,134.15356108679097
2024-05-23 12:57:15,135.08900613872902
2024-05-23 12:57:15,135.02034194778793
2024-05-23 12:57:15,134.1368875022789
2024-05-23 12:57:15,132.83225447044475
2024-05-23 12:57:15,131.55527745372046
2024-05-23 12:57:15,130.59896023607487
2024-05-23 12:57:15,129.9921929799345
2024-05-23 12:57:15,129.57272239755974
2024-05-23 12:57:15,129.15519705492758
2024-05-23 12:57:15,128.6577016240376
2024-05-23 12:57:15,128.13291772572268
2024-05-23 12:57:15,127.7364399904457
2024-05-23 12:57:15,127.69969902054342
2024-05-23 12:57:15,128.34617757666385
2024-05-23 12:57:15,130.06407581405702
2024-05-23 12:57:15,133.08095907809596
2024-05-23 12:57:15,137.1193491219813
2024-05-23 12:57:15,141.3234562896626
2024-05-23 12:57:15,144.6901718561805
2024-05-23 12:57:15,146.68582041414166
2024-05-23 12:57:15,147.47526638034702
2024-05-23 12:57:15,147.52267006972411
2024-05-23 12:57:15,146.8802537669853
2024-05-23 12:57:15,144.76145443611466
2024-05-23 12:57:15,139.7700530229584
2024-05-23 12:57:15,130.67917145650438
2024-05-23 12:57:15,117.3428616318768
2024-05-23 12:57:15,101.26262854878802
2024-05-23 12:57:15,85.4292726166484
2024-05-23 12:57:15,73.38510577071494
2024-05-23 12:57:15,67.9435608093769
2024-05-23 12:57:16,70.251415038113
2024-05-23 12:57:16,79.62685054358258
2024-05-23 12:57:16,94.11091732369013
2024-05-23 12:57:16,111.34067577135737
2024-05-23 12:57:16,129.3208968863642
2024-05-23 12:57:16,146.8078422241872
2024-05-23 12:57:16,163.229135221772
2024-05-23 12:57:16,178.32491554666498
2024-05-23 12:57:16,191.84711822148364
2024-05-23 12:57:16,203.52075448917628
2024-05-23 12:57:16,213.1761546237823
2024-05-23 12:57:16,220.82712352749903
2024-05-23 12:57:16,226.61143249002077
2024-05-23 12:57:16,230.7048600088582
2024-05-23 12:57:16,233.3223636354228
2024-05-23 12:57:16,234.76791642921077
2024-05-23 12:57:16,235.41730715239297
2024-05-23 12:57:16,235.61352952909598
2024-05-23 12:57:16,235.57779652539705
2024-05-23 12:57:16,235.42203335325482
2024-05-23 12:57:16,235.21955922883322
2024-05-23 12:57:16,235.01183062474755
2024-05-23 12:57:16,234.6900041319234
2024-05-23 12:57:16,233.83320842983673
2024-05-23 12:57:16,231.6705220864425
2024-05-23 12:57:16,227.26290914900298
2024-05-23 12:57:16,219.84018207969672
2024-05-23 12:57:16,209.14576744526914
2024-05-23 12:57:16,195.6769603684114
2024-05-23 12:57:16,180.70483188628836
2024-05-23 12:57:16,165.9177213414681
2024-05-23 12:57:16,152.7585512130255
2024-05-23 12:57:16,141.94060488507486
2024-05-23 12:57:16,133.57364698768077
2024-05-23 12:57:16,127.72059179454034
2024-05-23 12:57:16,124.81930629114342
2024-05-23 12:57:16,125.63872037133707
2024-05-23 12:57:16,130.8582526584468
2024-05-23 12:57:16,140.5710201655551
2024-05-23 12:57:16,154.01619933310164
2024-05-23 12:57:16,169.7019461322384
2024-05-23 12:57:16,185.8319007909971
2024-05-23 12:57:16,200.76044074263274
2024-05-23 12:57:16,213.25382773799817
2024-05-23 12:57:16,222.56794516604316
2024-05-23 12:57:16,228.4801296986214
2024-05-23 12:57:16,231.28664221564682
2024-05-23 12:57:16,231.59664424947636
2024-05-23 12:57:16,229.8288515142605
2024-05-23 12:57:16,225.67976097536908
2024-05-23 12:57:16,218.03822842140008
2024-05-23 12:57:16,205.50597487218337
2024-05-23 12:57:16,187.20123985891254
2024-05-23 12:57:16,163.41036046010365
2024-05-23 12:57:16,135.88049972795488
2024-05-23 12:57:16,107.73568140378701
2024-05-23 12:57:16,82.99326928045357
2024-05-23 12:57:16,65.69149567220856
2024-05-23 12:57:16,58.86012530202762
2024-05-23 12:57:16,63.71800593769554
2024-05-23 12:57:16,79.3737574944032
2024-05-23 12:57:16,103.10073616946198
2024-05-23 12:57:16,131.08874905962003
2024-05-23 12:57:16,159.41924465523599
2024-05-23 12:57:16,184.9151076066546
2024-05-23 12:57:16,205.5959984825598
2024-05-23 12:57:16,220.70353382800613
2024-05-23 12:57:16,230.46072769509726
2024-05-23 12:57:16,235.7516162333608
2024-05-23 12:57:16,237.80349247674246
2024-05-23 12:57:16,237.88414950689372
2024-05-23 12:57:16,237.04995215182532
2024-05-23 12:57:16,236.0133587987006
2024-05-23 12:57:16,235.15542475983574
2024-05-23 12:57:16,234.62346681652863
2024-05-23 12:57:16,234.42482093711263
2024-05-23 12:57:16,234.4811475668129
2024-05-23 12:57:16,234.6666927894954
2024-05-23 12:57:16,234.83904636649896
2024-05-23 12:57:16,234.81085579434216
2024-05-23 12:57:16,234.22729320026082
2024-05-23 12:57:16,232.44385995297804
2024-05-23 12:57:16,228.58011691120385
2024-05-23 12:57:16,221.80970322044806
2024-05-23 12:57:16,211.74426185080475
2024-05-23 12:57:16,198.688806377665
2024-05-23 12:57:16,183.63346613691712
2024-05-23 12:57:16,167.99738514470496
2024-05-23 12:57:16,153.25131290761024
2024-05-23 12:57:16,140.57333699402258
2024-05-23 12:57:16,130.64640224509162
2024-05-23 12:57:16,123.62624410439894
2024-05-23 12:57:16,119.24007283853616
2024-05-23 12:57:16,116.94847860299183
2024-05-23 12:57:16,116.11247614993135
2024-05-23 12:57:16,116.12996224858655
2024-05-23 12:57:16,116.52344201335055
2024-05-23 12:57:16,116.97410961642925
2024-05-23 12:57:16,117.31106764143104
2024-05-23 12:57:16,117.47536919209807
2024-05-23 12:57:16,117.47967841879431
2024-05-23 12:57:16,117.37523882005767
2024-05-23 12:57:16,117.22689144841219
2024-05-23 12:57:16,117.0933199604511
2024-05-23 12:57:16,117.01311905950828
2024-05-23 12:57:16,116.99962250525694
2024-05-23 12:57:16,117.04494740624835
2024-05-23 12:57:16,117.12871736376023
2024-05-23 12:57:16,117.22363641141038
2024-05-23 12:57:16,117.29594237226797
2024-05-23 12:57:16,117.31317939489531
2024-05-23 12:57:16,117.27330900565609
2024-05-23 12:57:16,117.2476223706361
2024-05-23 12:57:16,117.41656898424174
2024-05-23 12:57:16,118.09412804315377
2024-05-23 12:57:16,119.74424378247846
2024-05-23 12:57:16,122.95925457431342
2024-05-23 12:57:16,128.34785193535077
2024-05-23 12:57:16,136.3336341387087
2024-05-23 12:57:16,146.95004496628064
2024-05-23 12:57:16,159.73820092415767
2024-05-23 12:57:16,173.80096389943205
2024-05-23 12:57:16,187.99585279472436
2024-05-23 12:57:16,201.19590649207225
2024-05-23 12:57:16,212.52396463621406
2024-05-23 12:57:16,221.48504294473412
2024-05-23 12:57:16,227.9769339206482
2024-05-23 12:57:16,232.21330116998558
2024-05-23 12:57:16,234.6110280771757
2024-05-23 12:57:16,235.67676826107294
2024-05-23 12:57:16,235.90729242856574
2024-05-23 12:57:16,235.71401139151925
2024-05-23 12:57:16,235.38429703958815
2024-05-23 12:57:16,235.08347722469014
2024-05-23 12:57:16,234.87867049010663
2024-05-23 12:57:16,234.73809648676175
2024-05-23 12:57:16,234.4600120329315
2024-05-23 12:57:16,233.55800093100052
2024-05-23 12:57:16,231.22888634670082
2024-05-23 12:57:16,226.52197828336836
2024-05-23 12:57:16,218.68448098014534
2024-05-23 12:57:16,207.51561674508457
2024-05-23 12:57:16,193.544633115478
2024-05-23 12:57:16,177.9446132297947
2024-05-23 12:57:16,162.22325189209607
2024-05-23 12:57:16,147.82652411536966
2024-05-23 12:57:16,135.8147927845226
2024-05-23 12:57:16,126.71380764975622
2024-05-23 12:57:16,120.54139921299962
2024-05-23 12:57:16,116.93670892470003
2024-05-23 12:57:16,115.31605147253484
2024-05-23 12:57:16,115.01977901136252
2024-05-23 12:57:16,115.44003514462229
2024-05-23 12:57:16,116.1128791013833
2024-05-23 12:57:16,116.75197575296569
2024-05-23 12:57:16,117.22299781344692
2024-05-23 12:57:16,117.49058429310759
2024-05-23 12:57:16,117.5747126048472
2024-05-23 12:57:16,117.52670348493733
2024-05-23 12:57:16,117.41157857649068
2024-05-23 12:57:16,117.28731239769806
2024-05-23 12:57:16,117.18845113424797
2024-05-23 12:57:16,117.12506442532037
2024-05-23 12:57:16,117.09441910933558
2024-05-23 12:57:16,117.09152771936697
2024-05-23 12:57:16,117.11026980021134
2024-05-23 12:57:16,117.14127153392383
2024-05-23 12:57:16,117.17814864308762
2024-05-23 12:57:16,117.23071381377989
2024-05-23 12:57:16,117.3243175939187
2024-05-23 12:57:16,117.46672804325215
2024-05-23 12:57:16,117.59345962878619
2024-05-23 12:57:16,117.53124582753776
2024-05-23 12:57:16,117.02262615237564
2024-05-23 12:57:16,115.82471600090754
2024-05-23 12:57:16,113.84391104214183
2024-05-23 12:57:16,111.23079208845992
2024-05-23 12:57:16,108.36773076471658
2024-05-23 12:57:16,105.74033405694358
2024-05-23 12:57:16,103.76279150941609
2024-05-23 12:57:16,102.66377990640703
2024-05-23 12:57:16,102.48902565597112
2024-05-23 12:57:16,103.18155614785974
2024-05-23 12:57:16,104.66156899843034
2024-05-23 12:57:16,106.86744280014793
2024-05-23 12:57:16,109.75531729808051
2024-05-23 12:57:16,113.25299874076312
2024-05-23 12:57:16,117.18286801104293
2024-05-23 12:57:16,121.21056804278868
2024-05-23 12:57:16,124.87230980647095
2024-05-23 12:57:16,127.67964064666276
2024-05-23 12:57:16,129.25733467695142
2024-05-23 12:57:16,129.46014511344626
2024-05-23 12:57:16,128.42021457518283
2024-05-23 12:57:16,126.49863115049862
2024-05-23 12:57:16,124.15998223062877
2024-05-23 12:57:16,121.83311434350968
2024-05-23 12:57:16,119.82260351694195
2024-05-23 12:57:16,118.28986896418898
2024-05-23 12:57:16,117.27588128043851
2024-05-23 12:57:16,116.73111367370983
2024-05-23 12:57:16,116.54424391659506
2024-05-23 12:57:16,116.57794314925711
2024-05-23 12:57:16,116.7092416936423
2024-05-23 12:57:16,116.85603320477418
2024-05-23 12:57:16,116.97731532176715
2024-05-23 12:57:16,117.05692172742124
2024-05-23 12:57:16,117.09081564962342
2024-05-23 12:57:16,117.08541070673573
2024-05-23 12:57:16,117.05753806293548
2024-05-23 12:57:16,117.02683022601242
2024-05-23 12:57:16,117.00488147591298
2024-05-23 12:57:16,116.99215988252963
2024-05-23 12:57:16,116.9847432096745
2024-05-23 12:57:16,116.98158411675813
2024-05-23 12:57:16,116.98422016360689
2024-05-23 12:57:16,116.99174414750323
2024-05-23 12:57:16,116.9993787623436
2024-05-23 12:57:16,117.002851973834
2024-05-23 12:57:16,117.00250578517372
2024-05-23 12:57:16,117.00143715943477
2024-05-23 12:57:16,116.99791013588676
2024-05-23 12:57:16,116.97301672405186
2024-05-23 12:57:16,116.87113326545023
2024-05-23 12:57:16,116.5788729428798
2024-05-23 12:57:16,115.9282384577595
2024-05-23 12:57:16,114.74679312647824
2024-05-23 12:57:16,112.9353151937657
2024-05-23 12:57:16,110.52148824860659
2024-05-23 12:57:16,107.65920134009954
2024-05-23 12:57:16,104.57941551402538
2024-05-23 12:57:16,101.5081188402652
2024-05-23 12:57:16,98.5750011555406
2024-05-23 12:57:16,95.76447175744016
2024-05-23 12:57:16,92.96083802427928
2024-05-23 12:57:16,90.06770453425145
2024-05-23 12:57:16,87.09470957719944
2024-05-23 12:57:16,84.1197170074192
2024-05-23 12:57:16,81.1619269684934
2024-05-23 12:57:16,78.09608607409832
2024-05-23 12:57:16,74.69175620703457
2024-05-23 12:57:16,70.73978043136019
2024-05-23 12:57:16,66.15884308192479
2024-05-23 12:57:16,61.00784712136102
2024-05-23 12:57:16,55.43268751371736
2024-05-23 12:57:16,49.67621773537171
2024-05-23 12:57:16,44.24476147182679
2024-05-23 12:57:16,40.092981908592726
2024-05-23 12:57:16,38.53037494798362
2024-05-23 12:57:16,40.7541852024966
2024-05-23 12:57:17,47.2519878217047
2024-05-23 12:57:17,57.42681108608908
2024-05-23 12:57:17,69.67628706837728
2024-05-23 12:57:17,81.92048451431614
2024-05-23 12:57:17,92.31410584220848
2024-05-23 12:57:17,99.78398208418596
2024-05-23 12:57:17,104.18552676917263
2024-05-23 12:57:17,106.11328056149544
2024-05-23 12:57:17,106.53568407788835
2024-05-23 12:57:17,106.42212442208088
2024-05-23 12:57:17,106.47427524679655
2024-05-23 12:57:17,107.01410115968372
2024-05-23 12:57:17,108.02637746272767
2024-05-23 12:57:17,109.30872789362677
2024-05-23 12:57:17,110.64453728000957
2024-05-23 12:57:17,111.90630937131941
2024-05-23 12:57:17,113.05528346092848
2024-05-23 12:57:17,114.09419736377524
2024-05-23 12:57:17,115.05241706482485
2024-05-23 12:57:17,115.99966891358741
2024-05-23 12:57:17,117.01406560520626
2024-05-23 12:57:17,118.08998075154224
2024-05-23 12:57:17,119.07702321800508
2024-05-23 12:57:17,119.73211553567643
2024-05-23 12:57:17,119.85639186571325
2024-05-23 12:57:17,119.41394139499079
2024-05-23 12:57:17,118.55310725036111
2024-05-23 12:57:17,117.53023855274093
2024-05-23 12:57:17,116.59846202587737
2024-05-23 12:57:17,115.92848916875566
2024-05-23 12:57:17,115.58669515197374
2024-05-23 12:57:17,115.55326032198458
2024-05-23 12:57:17,115.7511719070422
2024-05-23 12:57:17,116.06566793234066
2024-05-23 12:57:17,116.33745763886334
2024-05-23 12:57:17,116.3129487175202
2024-05-23 12:57:17,115.56317510218204
2024-05-23 12:57:17,113.44809930633379
2024-05-23 12:57:17,109.23295841205014
2024-05-23 12:57:17,102.37501338278656
2024-05-23 12:57:17,92.8379483180406
2024-05-23 12:57:17,81.21896475780756
2024-05-23 12:57:17,68.584563287471
2024-05-23 12:57:17,56.11070298083427
2024-05-23 12:57:17,44.731881906455186
2024-05-23 12:57:17,34.95740167310487
2024-05-23 12:57:17,26.89031289745908
2024-05-23 12:57:17,20.377688012303175
2024-05-23 12:57:17,15.176846766475515
2024-05-23 12:57:17,11.055044507554118
2024-05-23 12:57:17,7.816369588174472
2024-05-23 12:57:17,5.29963207905328
2024-05-23 12:57:17,3.379742229769472
2024-05-23 12:57:17,1.9675565962388155
2024-05-23 12:57:17,0.993278317585561
2024-05-23 12:57:17,0.38155298169571417
2024-05-23 12:57:17,0.042396480139864606
2024-05-23 12:57:17,-0.11414163218906047
2024-05-23 12:57:17,-0.1583408799591194
2024-05-23 12:57:17,-0.13720076918293828
2024-05-23 12:57:17,-0.08523692375461789
2024-05-23 12:57:17,-0.031805756263917385
2024-05-23 12:57:17,0.0036198084167489404
2024-05-23 12:57:17,0.017952527564584635
2024-05-23 12:57:17,0.020182724530468144
2024-05-23 12:57:17,0.01898381371055798
2024-05-23 12:57:17,0.01567744061431592
2024-05-23 12:57:17,0.008402191010525728
2024-05-23 12:57:17,-0.0008681408901312059
2024-05-23 12:57:17,-0.006602602249259949
2024-05-23 12:57:17,-0.006084713295267773
2024-05-23 12:57:17,-0.0025226235959768316
2024-05-23 12:57:17,-0.0007641268018188308
2024-05-23 12:57:17,-0.0016284157639878706
2024-05-23 12:57:17,-0.0020804868288319626
2024-05-23 12:57:17,-0.00016890966604025752
2024-05-23 12:57:17,0.0022945623023971655
2024-05-23 12:57:17,0.0024874976684702054
2024-05-23 12:57:17,0.00046055817924129034
2024-05-23 12:57:17,-0.0011121631338013914
2024-05-23 12:57:17,-0.0005651965251604168
2024-05-23 12:57:17,0.0008296043023504761
2024-05-23 12:57:17,0.0009309420106694156
2024-05-23 12:57:17,-0.00036458313841380985
2024-05-23 12:57:17,-0.001241313766702575
2024-05-23 12:57:17,-0.0005808925904675129
2024-05-23 12:57:17,0.0006346133282808038
2024-05-23 12:57:17,0.0008222005588165141
2024-05-23 12:57:17,-8.931129492926165e-05
2024-05-23 12:57:17,-0.0007527263390920715
2024-05-23 12:57:17,-0.0003216654674108074
2024-05-23 12:57:17,0.0005128611209516306
2024-05-23 12:57:17,0.0006089203099985235
2024-05-23 12:57:17,-8.27694216263288e-05
2024-05-23 12:57:17,0.02030157398469863
2024-05-23 12:57:17,0.21153369634395258
2024-05-23 12:57:17,1.0459229481601169
2024-05-23 12:57:17,3.401110027434747
2024-05-23 12:57:17,8.329454656409029
2024-05-23 12:57:17,16.61883397095415
2024-05-23 12:57:17,28.419537569637885
2024-05-23 12:57:17,43.09554797421688
2024-05-23 12:57:17,59.33831738860194
2024-05-23 12:57:17,75.5115862808468
2024-05-23 12:57:17,90.08923396700384
2024-05-23 12:57:17,101.99384828320454
2024-05-23 12:57:17,110.7280391787198
2024-05-23 12:57:17,116.32947529579666
2024-05-23 12:57:17,119.24124737986841
2024-05-23 12:57:17,120.15343952493035
2024-05-23 12:57:17,119.8291843223245
2024-05-23 12:57:17,118.93945073334665
2024-05-23 12:57:17,117.95788232667155
2024-05-23 12:57:17,117.14794196496217
2024-05-23 12:57:17,116.61619593608816
2024-05-23 12:57:17,116.37259085756334
2024-05-23 12:57:17,116.36509130235537
2024-05-23 12:57:17,116.50225691883094
2024-05-23 12:57:17,116.6861337749073
2024-05-23 12:57:17,116.8485230856778
2024-05-23 12:57:17,116.96460133310873
2024-05-23 12:57:17,117.03670023887278
2024-05-23 12:57:17,117.07100215591437
2024-05-23 12:57:17,117.07110331118932
2024-05-23 12:57:17,117.04590227016332
2024-05-23 12:57:17,117.01195463298394
2024-05-23 12:57:17,116.98294003200742
2024-05-23 12:57:17,116.95985644859637
2024-05-23 12:57:17,116.9352993401582
2024-05-23 12:57:17,116.90640204234901
2024-05-23 12:57:17,116.88053769783335
2024-05-23 12:57:17,116.87250411122024
2024-05-23 12:57:17,116.91936922863054
2024-05-23 12:57:17,117.13263837237385
2024-05-23 12:57:17,117.7388251070137
2024-05-23 12:57:17,119.01377825553102
2024-05-23 12:57:17,121.10152137008575
2024-05-23 12:57:17,123.84734994794503
2024-05-23 12:57:17,126.78737096949101
2024-05-23 12:57:17,129.3047138002933
2024-05-23 12:57:17,130.83352055140122
2024-05-23 12:57:17,130.98601323275741
2024-05-23 12:57:17,129.5793888799105
2024-05-23 12:57:17,126.6264638145139
2024-05-23 12:57:17,122.3369561603969
2024-05-23 12:57:17,117.10164392566489
2024-05-23 12:57:17,111.41002285202555
2024-05-23 12:57:17,105.71199473894859
2024-05-23 12:57:17,100.30001038948542
2024-05-23 12:57:17,95.2808152300066
2024-05-23 12:57:17,90.63275077276921
2024-05-23 12:57:17,86.28629094978476
2024-05-23 12:57:17,82.17716285446676
2024-05-23 12:57:17,78.26819356820337
2024-05-23 12:57:17,74.55370221965696
2024-05-23 12:57:17,71.0487920128358
2024-05-23 12:57:17,67.76233754195856
2024-05-23 12:57:17,64.65920090535973
2024-05-23 12:57:17,61.62537969113951
2024-05-23 12:57:17,58.48152551177766
2024-05-23 12:57:17,55.12674313072548
2024-05-23 12:57:17,51.78252922449402
2024-05-23 12:57:17,49.06498429070656
2024-05-23 12:57:17,47.68699047911624
2024-05-23 12:57:17,48.05241196300281
2024-05-23 12:57:17,50.124458040605305
2024-05-23 12:57:17,53.51605323951063
2024-05-23 12:57:17,57.541890251612
2024-05-23 12:57:17,61.24474264074667
2024-05-23 12:57:17,63.54067638900549
2024-05-23 12:57:17,63.46292553435559
2024-05-23 12:57:17,60.411294902343364
2024-05-23 12:57:17,54.356344498704175
2024-05-23 12:57:17,45.91573849248297
2024-05-23 12:57:17,36.19990964189756
2024-05-23 12:57:17,26.454573837788065
2024-05-23 12:57:17,17.697340526306544
2024-05-23 12:57:17,10.54349335948023
2024-05-23 12:57:17,5.235294063352212
2024-05-23 12:57:17,1.739919105217457
2024-05-23 12:57:17,-0.18693751711529527
2024-05-23 12:57:17,-0.9488797786543178
2024-05-23 12:57:17,-1.0065571091059307
2024-05-23 12:57:17,-0.7455677163186916
2024-05-23 12:57:17,-0.40265201561378905
2024-05-23 12:57:17,-0.09133749251371724
2024-05-23 12:57:17,0.13029115497181662
2024-05-23 12:57:17,0.22939922142916694
2024-05-23 12:57:17,0.21357474702603182
2024-05-23 12:57:17,0.1361352485461124
2024-05-23 12:57:17,0.059829104689621784
2024-05-23 12:57:17,0.0127746970820254
2024-05-23 12:57:17,-0.015138360959808564
2024-05-23 12:57:17,-0.03860456574295555
2024-05-23 12:57:17,-0.05271723208968327
2024-05-23 12:57:17,-0.0449047862038672
2024-05-23 12:57:17,-0.019161283606501864
2024-05-23 12:57:17,0.0036508828691004507
2024-05-23 12:57:17,0.009011285863215094
2024-05-23 12:57:17,0.003315638154192992
2024-05-23 12:57:17,0.001793044851096876
2024-05-23 12:57:17,0.008028212422642652
2024-05-23 12:57:17,0.011949268354797316
2024-05-23 12:57:17,0.006044833755601688
2024-05-23 12:57:17,-0.0038852225841285956
2024-05-23 12:57:17,-0.006993592794795037
2024-05-23 12:57:17,-0.0016947434022466488
2024-05-23 12:57:17,0.0033942811153214736
2024-05-23 12:57:17,0.0016648725327205087
2024-05-23 12:57:17,-0.003415552074226268
2024-05-23 12:57:17,-0.0042755469514671315
2024-05-23 12:57:17,0.00023260077504629395
2024-05-23 12:57:17,0.003993261082795684
2024-05-23 12:57:17,0.002409514202920176
2024-05-23 12:57:17,-0.0017754812272274796
2024-05-23 12:57:17,-0.0028636055089135398
2024-05-23 12:57:17,9.381265090206117e-05
2024-05-23 12:57:17,0.0026681161882172112
2024-05-23 12:57:17,0.0014747111256216082
2024-05-23 12:57:17,-0.001539248461061644
2024-05-23 12:57:17,-0.002258966538298943
2024-05-23 12:57:17,-1.6657632662292035e-05
2024-05-23 12:57:17,0.0019380397342420197
2024-05-23 12:57:17,0.0011178063913761709
2024-05-23 12:57:17,-0.0010649166274928885
2024-05-23 12:57:17,-0.0015990864961569408
2024-05-23 12:57:17,2.0345807506212704e-05
2024-05-23 12:57:17,0.0014336111757660458
2024-05-23 12:57:17,0.0008252221375324108
2024-05-23 12:57:17,-0.000778181160966919
2024-05-23 12:57:17,-0.0011776952429351226
2024-05-23 12:57:17,9.306209226905287e-07
2024-05-23 12:57:17,0.001036968604543151
2024-05-23 12:57:17,0.0005998275630497873
2024-05-23 12:57:17,-0.0005674624438068754
2024-05-23 12:57:17,-0.000860152435140176
2024-05-23 12:57:17,-5.269674921327491e-07
2024-05-23 12:57:17,0.0007579226296887634
2024-05-23 12:57:17,0.00044142807016308617
2024-05-23 12:57:17,-0.0004111085976912287
2024-05-23 12:57:17,-0.0006277990816008665
2024-05-23 12:57:17,-2.2845101960079833e-06
2024-05-23 12:57:17,0.000552326828129107
2024-05-23 12:57:17,0.0003232207307051494
2024-05-23 12:57:17,-0.0002990336885834939
2024-05-23 12:57:17,-0.0004589037502829371
2024-05-23 12:57:17,-3.2778644209686217e-06
2024-05-23 12:57:17,0.00040260534075776044
2024-05-23 12:57:18,0.00023694289758039743
2024-05-23 12:57:18,-0.0002171916795452624
2024-05-23 12:57:18,-0.0003351793460636176
2024-05-23 12:57:18,-3.399042384264734e-06
2024-05-23 12:57:18,0.0002935392424183918
2024-05-23 12:57:18,0.00017368959806119368
2024-05-23 12:57:18,-0.00015778763569660123
2024-05-23 12:57:18,-0.0002448688469358088
2024-05-23 12:57:18,-3.2699216470155575e-06
2024-05-23 12:57:18,0.00021397807074825573
2024-05-23 12:57:18,0.0001272980816835407
2024-05-23 12:57:18,-0.000114632108167147
2024-05-23 12:57:18,-0.00017888361250476808
2024-05-23 12:57:18,-2.951747206183211e-06
2024-05-23 12:57:18,0.0001559903588110348
2024-05-23 12:57:18,9.330337975319356e-05
2024-05-23 12:57:18,-8.327209081090617e-05
2024-05-23 12:57:18,-0.00013067618478457952
2024-05-23 12:57:18,-2.56725786686028e-06
2024-05-23 12:57:18,0.00011371412336519564
2024-05-23 12:57:18,6.838280210481202e-05
2024-05-23 12:57:18,-6.049114979957906e-05
2024-05-23 12:57:18,0.00034695096608953037
2024-05-23 12:57:18,0.007620250109346104
2024-05-23 12:57:18,0.055478474000002165
2024-05-23 12:57:18,0.2414176951816968
2024-05-23 12:57:18,0.7338486925570147
2024-05-23 12:57:18,1.700606596031099
2024-05-23 12:57:18,3.2071141373308856
2024-05-23 12:57:18,5.238186667000238
2024-05-23 12:57:18,7.8793316653600955
2024-05-23 12:57:18,11.407583145668182
2024-05-23 12:57:18,16.06919753943015
2024-05-23 12:57:18,21.720596048108973
2024-05-23 12:57:18,27.679434456501777
2024-05-23 12:57:18,32.901376607408906
2024-05-23 12:57:18,36.36897126645454
2024-05-23 12:57:18,37.50040702539154
2024-05-23 12:57:18,36.372525477455696
2024-05-23 12:57:18,33.64252052862424
2024-05-23 12:57:18,30.247895677864353
2024-05-23 12:57:18,27.09303643293522
2024-05-23 12:57:18,24.863267661125978
2024-05-23 12:57:18,23.948922099857846
2024-05-23 12:57:18,24.407811227249137
2024-05-23 12:57:18,25.968412462521066
2024-05-23 12:57:18,28.129905777167984
2024-05-23 12:57:18,30.354410971639076
2024-05-23 12:57:18,32.2512236782466
2024-05-23 12:57:18,33.649562402824
2024-05-23 12:57:18,34.55299427469401
2024-05-23 12:57:18,35.05509604959496
2024-05-23 12:57:18,35.05509604959496
2024-05-23 12:57:18,35.30315163833614
2024-05-23 12:57:18,35.56006923159162
2024-05-23 12:57:18,36.30693582290357
2024-05-23 12:57:18,38.17904456726017
2024-05-23 12:57:18,41.62823503621531
2024-05-23 12:57:18,46.539741211574274
2024-05-23 12:57:18,52.112360157603874
2024-05-23 12:57:18,57.07238407390446
2024-05-23 12:57:18,60.11550398871509
2024-05-23 12:57:18,60.41355886738422
2024-05-23 12:57:18,57.95790487072815
2024-05-23 12:57:18,53.53686937794539
2024-05-23 12:57:18,48.36255663657717
2024-05-23 12:57:18,43.60375660331178
2024-05-23 12:57:18,40.08909214227316
2024-05-23 12:57:18,38.23498507589785
2024-05-23 12:57:18,38.093865105298036
2024-05-23 12:57:18,39.438930353350585
2024-05-23 12:57:18,41.87586509890813
2024-05-23 12:57:18,44.988539120061645
2024-05-23 12:57:18,48.51280813727753
2024-05-23 12:57:18,52.46684018342574
2024-05-23 12:57:18,57.07230434076644
2024-05-23 12:57:18,62.43190678591286
2024-05-23 12:57:18,68.22878256604606
2024-05-23 12:57:18,73.71371975467729
2024-05-23 12:57:18,77.95457877551857
2024-05-23 12:57:18,80.17018711313524
2024-05-23 12:57:18,80.01201028895463
2024-05-23 12:57:18,77.69389800382285
2024-05-23 12:57:18,73.89979082654077
2024-05-23 12:57:18,69.50511636667719
2024-05-23 12:57:18,65.27509475203604
2024-05-23 12:57:18,61.706664581861546
2024-05-23 12:57:18,59.03835848012093
2024-05-23 12:57:18,57.3248028740558
2024-05-23 12:57:18,56.48696845211329
2024-05-23 12:57:18,56.34009827524832
2024-05-23 12:57:18,56.64013538493961
2024-05-23 12:57:18,57.15390744156142
2024-05-23 12:57:18,57.71841730625642
2024-05-23 12:57:18,58.266275409150154
2024-05-23 12:57:18,58.83135883719858
2024-05-23 12:57:18,59.550787212600866
2024-05-23 12:57:18,60.64831762867973
2024-05-23 12:57:18,62.3753816249343
2024-05-23 12:57:18,64.91435494819122
2024-05-23 12:57:18,68.27742884489173
2024-05-23 12:57:18,72.24447798695992
2024-05-23 12:57:18,76.37986822781487
2024-05-23 12:57:18,80.14661403354226
2024-05-23 12:57:18,83.0933718832145
2024-05-23 12:57:18,85.03744865670427
2024-05-23 12:57:18,86.13846495328114
2024-05-23 12:57:18,86.80099855906141
2024-05-23 12:57:18,87.45703430105465
2024-05-23 12:57:18,88.36559577714203
2024-05-23 12:57:18,89.54360036036381
2024-05-23 12:57:18,90.83944828783206
2024-05-23 12:57:18,92.06914649749707
2024-05-23 12:57:18,93.1139068170768
2024-05-23 12:57:18,93.93440565023312
2024-05-23 12:57:18,94.53295979527822
2024-05-23 12:57:18,94.92014548897443
2024-05-23 12:57:18,95.11377031650912
2024-05-23 12:57:18,95.16441676733318
2024-05-23 12:57:18,95.18923359352704
2024-05-23 12:57:18,95.38737723239842
2024-05-23 12:57:18,96.0008870824365
2024-05-23 12:57:18,97.20667945736979
2024-05-23 12:57:18,98.9909817687826
2024-05-23 12:57:18,101.11387532679203
2024-05-23 12:57:18,103.2404192054112
2024-05-23 12:57:18,105.18056955898663
2024-05-23 12:57:18,107.04912746128302
2024-05-23 12:57:18,109.18465538247487
2024-05-23 12:57:18,111.86237524202073
2024-05-23 12:57:18,115.01397891041717
2024-05-23 12:57:18,118.16328536454834
2024-05-23 12:57:18,120.62192275912251
2024-05-23 12:57:18,121.80388242898978
2024-05-23 12:57:18,121.4539143567216
2024-05-23 12:57:18,119.68148624989536
2024-05-23 12:57:18,116.84140824109144
2024-05-23 12:57:18,113.36545820873765
2024-05-23 12:57:18,109.61411332762988
2024-05-23 12:57:18,105.7739961310386
2024-05-23 12:57:18,101.81854351324688
2024-05-23 12:57:18,97.54878867134045
2024-05-23 12:57:18,92.71760238289293
2024-05-23 12:57:18,87.20741029617187
2024-05-23 12:57:18,81.1783851808821
2024-05-23 12:57:18,75.08513424735851
2024-05-23 12:57:18,69.5322364656564
2024-05-23 12:57:18,65.04851594328727
2024-05-23 12:57:18,61.90478825076802
2024-05-23 12:57:18,60.06293803360649
2024-05-23 12:57:18,59.26220638918971
2024-05-23 12:57:18,59.1652243132026
2024-05-23 12:57:18,59.46508257249193
2024-05-23 12:57:18,59.91714131056249
2024-05-23 12:57:18,60.338950724775096
2024-05-23 12:57:18,60.64107222106378
2024-05-23 12:57:18,60.90249635053126
2024-05-23 12:57:18,61.437344100444555
2024-05-23 12:57:18,62.76981056796724
2024-05-23 12:57:18,65.4679221442504
2024-05-23 12:57:18,69.87498830581954
2024-05-23 12:57:18,75.87000706238173
2024-05-23 12:57:18,82.80938324509602
2024-05-23 12:57:18,89.71959102351863
2024-05-23 12:57:18,95.66462993256039
2024-05-23 12:57:18,100.09396063687353
2024-05-23 12:57:18,102.98353658747016
2024-05-23 12:57:18,104.72062213317363
2024-05-23 12:57:18,105.83418241950537
2024-05-23 12:57:18,106.73037173234931
2024-05-23 12:57:18,107.56518881234406
2024-05-23 12:57:18,108.3133740525836
2024-05-23 12:57:18,108.97279822640918
2024-05-23 12:57:18,109.73450427766572
2024-05-23 12:57:18,110.97251424464042
2024-05-23 12:57:18,113.05795373433688
2024-05-23 12:57:18,116.1298207751862
2024-05-23 12:57:18,119.96732921467697
2024-05-23 12:57:18,124.03632494143815
2024-05-23 12:57:18,127.68461035840083
2024-05-23 12:57:18,130.37817231256992
2024-05-23 12:57:18,131.8512238714209
2024-05-23 12:57:18,132.1158123276605
2024-05-23 12:57:18,131.379306905909
2024-05-23 12:57:18,129.94952776013326
2024-05-23 12:57:18,128.15430280496912
2024-05-23 12:57:18,126.25870644605813
2024-05-23 12:57:18,124.39710672205263
2024-05-23 12:57:18,122.58077583673185
2024-05-23 12:57:18,120.79716417844993
2024-05-23 12:57:18,119.1244328812433
2024-05-23 12:57:18,117.76499268849787
2024-05-23 12:57:18,116.97259385187076
2024-05-23 12:57:18,116.92752188767544
2024-05-23 12:57:18,117.64493082818205
2024-05-23 12:57:18,118.97270616888599
2024-05-23 12:57:18,120.67209395518677
2024-05-23 12:57:18,122.52597102809611
2024-05-23 12:57:18,124.41473243935351
2024-05-23 12:57:18,126.32410280763075
2024-05-23 12:57:18,128.28319755860642
2024-05-23 12:57:18,130.27049203681557
2024-05-23 12:57:18,132.1493514803232
2024-05-23 12:57:18,133.6765783459286
2024-05-23 12:57:18,134.58240188204886
2024-05-23 12:57:18,134.68352781509964
2024-05-23 12:57:18,133.97425698005526
2024-05-23 12:57:18,132.64885963328726
2024-05-23 12:57:18,131.0482543583109
2024-05-23 12:57:18,129.572539323127
2024-05-23 12:57:18,128.6116681814195
2024-05-23 12:57:18,128.50837304785364
2024-05-23 12:57:18,129.52117622857529
2024-05-23 12:57:18,131.75380355775
2024-05-23 12:57:18,135.05764391434403
2024-05-23 12:57:18,138.93670714061153
2024-05-23 12:57:18,142.49297046001124
2024-05-23 12:57:18,144.4907627433004
2024-05-23 12:57:18,143.62031918502885
2024-05-23 12:57:18,138.91479216547023
2024-05-23 12:57:18,130.13233431756376
2024-05-23 12:57:18,117.91969500590842
2024-05-23 12:57:18,103.6924001614683
2024-05-23 12:57:18,89.27382224492416
2024-05-23 12:57:18,76.41425650152796
2024-05-23 12:57:18,66.36917535984384
2024-05-23 12:57:18,59.689523407270926
2024-05-23 12:57:18,56.25664045660713
2024-05-23 12:57:18,55.48507820506937
2024-05-23 12:57:18,56.59181990595888
2024-05-23 12:57:18,58.85007980554207
2024-05-23 12:57:18,61.758223606030676
2024-05-23 12:57:18,65.07254119875665
2024-05-23 12:57:18,68.70607053175229
2024-05-23 12:57:18,72.56854032843628
2024-05-23 12:57:18,76.45574237460059
2024-05-23 12:57:18,80.05360256885204
2024-05-23 12:57:18,83.03765421409149
2024-05-23 12:57:18,85.19490335632088
2024-05-23 12:57:18,86.5076100982643
2024-05-23 12:57:18,87.18084236296342
2024-05-23 12:57:18,87.6157799695722
2024-05-23 12:57:18,88.32885615188516
2024-05-23 12:57:18,89.82154014705338
2024-05-23 12:57:18,92.42631563912714
2024-05-23 12:57:18,96.18063510831622
2024-05-23 12:57:18,100.7885411604895
2024-05-23 12:57:18,105.69980730417163
2024-05-23 12:57:18,110.28600317927052
2024-05-23 12:57:18,114.05115388841959
2024-05-23 12:57:18,116.79130415431278
2024-05-23 12:57:19,118.63099851902741
2024-05-23 12:57:19,119.92583877565623
2024-05-23 12:57:19,121.08780899627895
2024-05-23 12:57:19,122.41670591587861
2024-05-23 12:57:19,124.00460626659824
2024-05-23 12:57:19,125.7431749249163
2024-05-23 12:57:19,127.41827401055566
2024-05-23 12:57:19,128.83470157810194
2024-05-23 12:57:19,129.90600224287218
2024-05-23 12:57:19,130.68247819757093
2024-05-23 12:57:19,131.33469085240588
2024-05-23 12:57:19,132.11314837979765
2024-05-23 12:57:19,133.2791745983102
2024-05-23 12:57:19,135.0030244515301
2024-05-23 12:57:19,137.2783841364726
2024-05-23 12:57:19,139.9417476497798
2024-05-23 12:57:19,142.80612525364032
2024-05-23 12:57:19,145.77399554522032
2024-05-23 12:57:19,148.79721532783782
2024-05-23 12:57:19,151.73222335361282
2024-05-23 12:57:19,154.2610043722787
2024-05-23 12:57:19,155.97493700542478
2024-05-23 12:57:19,156.57041252607618
2024-05-23 12:57:19,156.0278708277958
2024-05-23 12:57:19,154.66117780190714
2024-05-23 12:57:19,153.00067627874103
2024-05-23 12:57:19,151.57199077060685
2024-05-23 12:57:19,150.6919093267708
2024-05-23 12:57:19,150.38236271030152
2024-05-23 12:57:19,150.42871161582
2024-05-23 12:57:19,150.5313699126415
2024-05-23 12:57:19,150.45970023781945
2024-05-23 12:57:19,150.13712162501616
2024-05-23 12:57:19,149.64646431976809
2024-05-23 12:57:19,149.18506907728852
2024-05-23 12:57:19,148.99549856207645
2024-05-23 12:57:19,149.28199960981047
2024-05-23 12:57:19,150.1272957465224
2024-05-23 12:57:19,151.44215916355196
2024-05-23 12:57:19,152.9781617828775
2024-05-23 12:57:19,154.40511884581088
2024-05-23 12:57:19,155.42728085249513
2024-05-23 12:57:19,155.8955094122459
2024-05-23 12:57:19,155.8579256755708
2024-05-23 12:57:19,155.50437456126278
2024-05-23 12:57:19,155.02796500940116
2024-05-23 12:57:19,154.49835635083843
2024-05-23 12:57:19,153.83498920204764
2024-05-23 12:57:19,152.89144372868185
2024-05-23 12:57:19,151.58821357758825
2024-05-23 12:57:19,150.0069892540551
2024-05-23 12:57:19,148.39381755240308
2024-05-23 12:57:19,147.0882882060933
2024-05-23 12:57:19,146.43569738135608
2024-05-23 12:57:19,146.71053813052862
2024-05-23 12:57:19,148.0423637109261
2024-05-23 12:57:19,150.3541958691844
2024-05-23 12:57:19,153.3604773584421
2024-05-23 12:57:19,156.6533937749498
2024-05-23 12:57:19,159.83712428930912
2024-05-23 12:57:19,162.6217905163345
2024-05-23 12:57:19,164.82303811885254
2024-05-23 12:57:19,166.30285563635536
2024-05-23 12:57:19,166.9333881335228
2024-05-23 12:57:19,166.62648067422288
2024-05-23 12:57:19,165.4107199240616
2024-05-23 12:57:19,163.50344062696473
2024-05-23 12:57:19,161.3138775960034
2024-05-23 12:57:19,159.33847216584806
2024-05-23 12:57:19,157.9804953140187
2024-05-23 12:57:19,157.39629211207867
2024-05-23 12:57:19,157.46164214675903
2024-05-23 12:57:19,157.85813866906017
2024-05-23 12:57:19,158.20567907869858
2024-05-23 12:57:19,158.18626859197207
2024-05-23 12:57:19,157.6505481730758
2024-05-23 12:57:19,156.68831893763067
2024-05-23 12:57:19,155.61421985791
2024-05-23 12:57:19,154.8473309737136
2024-05-23 12:57:19,154.7333440397563
2024-05-23 12:57:19,155.39720880666042
2024-05-23 12:57:19,156.69536823603747
2024-05-23 12:57:19,158.28946146079596
2024-05-23 12:57:19,159.81163664281243
2024-05-23 12:57:19,161.03363875007935
2024-05-23 12:57:19,161.92768247552618
2024-05-23 12:57:19,162.58103360659652
2024-05-23 12:57:19,163.05660745536667
2024-05-23 12:57:19,163.33525024605166
2024-05-23 12:57:19,163.3727608193783
2024-05-23 12:57:19,163.1807926304301
2024-05-23 12:57:19,162.83641330750933
2024-05-23 12:57:19,162.41342672337296
2024-05-23 12:57:19,161.89938823081164
2024-05-23 12:57:19,161.1768814561074
2024-05-23 12:57:19,160.10809942312108
2024-05-23 12:57:19,158.6704854521622
2024-05-23 12:57:19,157.02695445781214
2024-05-23 12:57:19,155.46878137422175
2024-05-23 12:57:19,154.28078840415864
2024-05-23 12:57:19,153.617671777797
2024-05-23 12:57:19,153.4396346662359
2024-05-23 12:57:19,153.5123340031561
2024-05-23 12:57:19,153.46672698229636
2024-05-23 12:57:19,152.91465201573172
2024-05-23 12:57:19,151.59480612077144
2024-05-23 12:57:19,149.49017419059732
2024-05-23 12:57:19,146.8526813663516
2024-05-23 12:57:19,144.11126695273026
2024-05-23 12:57:19,141.69950102506195
2024-05-23 12:57:19,139.88367367990958
2024-05-23 12:57:19,138.67503316044463
2024-05-23 12:57:19,137.86229298079417
2024-05-23 12:57:19,137.1374419380266
2024-05-23 12:57:19,136.25270418338414
2024-05-23 12:57:19,135.14214844803192
2024-05-23 12:57:19,133.95267400560138
2024-05-23 12:57:19,132.964209026363
2024-05-23 12:57:19,132.44239015215703
2024-05-23 12:57:19,132.51178806872693
2024-05-23 12:57:19,133.11598323739176
2024-05-23 12:57:19,134.0673607167964
2024-05-23 12:57:19,135.1434944017319
2024-05-23 12:57:19,136.17595143199446
2024-05-23 12:57:19,137.08866327000132
2024-05-23 12:57:19,137.8783673143784
2024-05-23 12:57:19,138.57564780984833
2024-05-23 12:57:19,139.23053285609222
2024-05-23 12:57:19,139.91253995526918
2024-05-23 12:57:19,140.66805369730054
2024-05-23 12:57:19,141.41925296360353
2024-05-23 12:57:19,141.88618320058782
2024-05-23 12:57:19,141.64108289810187
2024-05-23 12:57:19,140.31564741401584
2024-05-23 12:57:19,137.85870321349094
2024-05-23 12:57:19,134.67979430526083
2024-05-23 12:57:19,131.55871457386345
2024-05-23 12:57:19,129.33890780346348
2024-05-23 12:57:19,128.5677143285396
2024-05-23 12:57:19,129.28400640933603
2024-05-23 12:57:19,131.05257168850653
2024-05-23 12:57:19,133.19233931300835
2024-05-23 12:57:19,135.05635473226243
2024-05-23 12:57:19,136.233749271017
2024-05-23 12:57:19,136.61537171975684
2024-05-23 12:57:19,136.33882825865248
2024-05-23 12:57:19,135.67384081231475
2024-05-23 12:57:19,134.91352989421853
2024-05-23 12:57:19,134.3035709112843
2024-05-23 12:57:19,133.99695535500152
2024-05-23 12:57:19,134.01802646524362
2024-05-23 12:57:19,134.25667298216007
2024-05-23 12:57:19,134.52196852717174
2024-05-23 12:57:19,134.63742722560934
2024-05-23 12:57:19,134.52125112430565
2024-05-23 12:57:19,134.2107336058209
2024-05-23 12:57:19,133.82960934184328
2024-05-23 12:57:19,133.52483244837526
2024-05-23 12:57:19,133.41110735484088
2024-05-23 12:57:19,133.55636424616912
2024-05-23 12:57:19,134.0228524223313
2024-05-23 12:57:19,134.93692440959074
2024-05-23 12:57:19,136.49812547596767
2024-05-23 12:57:19,138.85200004542162
2024-05-23 12:57:19,141.8933570978606
2024-05-23 12:57:19,145.17436368479585
2024-05-23 12:57:19,148.01622647634335
2024-05-23 12:57:19,149.7615363438591
2024-05-23 12:57:19,150.01437331023234
2024-05-23 12:57:19,148.73881153006732
2024-05-23 12:57:19,146.1957693574883
2024-05-23 12:57:19,142.80905676873863
2024-05-23 12:57:19,139.06410558332206
2024-05-23 12:57:19,135.46297043470247
2024-05-23 12:57:19,132.48776406671993
2024-05-23 12:57:19,130.53164066482697
2024-05-23 12:57:19,129.8163423910294
2024-05-23 12:57:19,130.3522433911906
2024-05-23 12:57:19,131.9678721934809
2024-05-23 12:57:19,134.37323804013116
2024-05-23 12:57:19,137.20117394907433
2024-05-23 12:57:19,140.01923286937222
2024-05-23 12:57:19,142.35870481687107
2024-05-23 12:57:19,143.80099701706052
2024-05-23 12:57:19,144.0990596518354
2024-05-23 12:57:19,143.2581701342403
2024-05-23 12:57:19,141.5232219643181
2024-05-23 12:57:19,139.29882140017696
2024-05-23 12:57:19,137.06364748284332
2024-05-23 12:57:19,135.29684790110542
2024-05-23 12:57:19,134.39147636108854
2024-05-23 12:57:19,134.54667314480716
2024-05-23 12:57:19,135.67836297968478
2024-05-23 12:57:19,137.417809351437
2024-05-23 12:57:19,139.24055407446602
2024-05-23 12:57:19,140.68118788796167
2024-05-23 12:57:19,141.5086997710617
2024-05-23 12:57:19,141.75266498864647
2024-05-23 12:57:19,141.58440684974812
2024-05-23 12:57:19,141.16686536335547
2024-05-23 12:57:19,140.59231666241558
2024-05-23 12:57:19,139.92927455885558
2024-05-23 12:57:19,139.29919631591412
2024-05-23 12:57:19,138.8922942138372
2024-05-23 12:57:19,138.9008196303577
2024-05-23 12:57:19,139.4263760025005
2024-05-23 12:57:19,140.4376757984229
2024-05-23 12:57:19,141.7959194407136
2024-05-23 12:57:19,143.29650099510405
2024-05-23 12:57:19,144.68656050866727
2024-05-23 12:57:19,145.68080302955784
2024-05-23 12:57:19,146.012918282892
2024-05-23 12:57:19,145.51584037875975
2024-05-23 12:57:19,144.19130820021522
2024-05-23 12:57:19,142.2321082094119
2024-05-23 12:57:19,139.97557844887982
2024-05-23 12:57:19,137.7892158648155
2024-05-23 12:57:19,135.93136400205887
2024-05-23 12:57:19,134.4685705341991
2024-05-23 12:57:19,133.304303348874
2024-05-23 12:57:19,132.28880551285087
2024-05-23 12:57:19,131.33162035541096
2024-05-23 12:57:19,130.46378298340645
2024-05-23 12:57:19,129.83418795999629
2024-05-23 12:57:19,129.63945915543766
2024-05-23 12:57:19,130.01336904472228
2024-05-23 12:57:19,130.93705393307457
2024-05-23 12:57:19,132.22315532867742
2024-05-23 12:57:19,133.5803972567026
2024-05-23 12:57:19,134.72390348455994
2024-05-23 12:57:19,135.47510988675575
2024-05-23 12:57:19,135.79938565367698
2024-05-23 12:57:19,135.76690488869764
2024-05-23 12:57:19,135.4718062767666
2024-05-23 12:57:19,134.96368485107973
2024-05-23 12:57:19,134.22147699567773
2024-05-23 12:57:19,133.1698642005831
2024-05-23 12:57:19,131.72976714069125
2024-05-23 12:57:19,129.88478728525416
2024-05-23 12:57:19,127.72427248693364
2024-05-23 12:57:19,125.43001493057692
2024-05-23 12:57:19,123.21628567950663
2024-05-23 12:57:19,121.26649371674398
2024-05-23 12:57:19,119.7096709497257
2024-05-23 12:57:19,118.65099202311306
2024-05-23 12:57:19,118.22231447343104
2024-05-23 12:57:19,118.58603415524588
2024-05-23 12:57:19,119.85571642358346
2024-05-23 12:57:19,121.98189638698844
2024-05-23 12:57:19,124.70219730093181
2024-05-23 12:57:19,127.60470955108927
2024-05-23 12:57:20,130.25996671555774
2024-05-23 12:57:20,132.3441531996207
2024-05-23 12:57:20,133.71554837528788
2024-05-23 12:57:20,134.44623146718098
2024-05-23 12:57:20,134.80731479319124
2024-05-23 12:57:20,135.17940557321765
2024-05-23 12:57:20,135.87154113551492
2024-05-23 12:57:20,136.91365910167846
2024-05-23 12:57:20,137.9589030216257
2024-05-23 12:57:20,138.38713912124754
2024-05-23 12:57:20,137.57117929429026
2024-05-23 12:57:20,135.16648434784935
2024-05-23 12:57:20,131.27251065994696
2024-05-23 12:57:20,126.38976113392164
2024-05-23 12:57:20,121.22334197357472
2024-05-23 12:57:20,116.46178984746244
2024-05-23 12:57:20,112.61747648147481
2024-05-23 12:57:20,109.93191433601505
2024-05-23 12:57:20,108.34353444782718
2024-05-23 12:57:20,107.55199803451153
2024-05-23 12:57:20,107.18045527144001
2024-05-23 12:57:20,106.95274708725275
2024-05-23 12:57:20,106.78071390681491
2024-05-23 12:57:20,106.72511350336885
2024-05-23 12:57:20,106.88117180745215
2024-05-23 12:57:20,107.27935664618263
2024-05-23 12:57:20,107.86087957933668
2024-05-23 12:57:20,108.51555737128656
2024-05-23 12:57:20,109.12250392044332
2024-05-23 12:57:20,109.55226993678453
2024-05-23 12:57:20,109.64879642094725
2024-05-23 12:57:20,109.2512075840309
2024-05-23 12:57:20,108.28968088938228
2024-05-23 12:57:20,106.90296716406041
2024-05-23 12:57:20,105.4687813094085
2024-05-23 12:57:20,104.49870876918776
2024-05-23 12:57:20,104.48587425823584
2024-05-23 12:57:20,105.85121318251848
2024-05-23 12:57:20,108.99695641363198
2024-05-23 12:57:20,114.28036762415528
2024-05-23 12:57:20,121.76807050221183
2024-05-23 12:57:20,130.9244981507519
2024-05-23 12:57:20,140.5459438221807
2024-05-23 12:57:20,149.05296072580225
2024-05-23 12:57:20,154.95561500069672
2024-05-23 12:57:20,157.2488964679615
2024-05-23 12:57:20,155.6436100890626
2024-05-23 12:57:20,150.6328489551267
2024-05-23 12:57:20,143.36947305576834
2024-05-23 12:57:20,135.3383902926061
2024-05-23 12:57:20,127.93146028331854
2024-05-23 12:57:20,122.14418783730379
2024-05-23 12:57:20,118.5376483979233
2024-05-23 12:57:20,117.36872325370288
2024-05-23 12:57:20,118.64530150440217
2024-05-23 12:57:20,122.01462339308895
2024-05-23 12:57:20,126.66723570963413
2024-05-23 12:57:20,131.47782908406393
2024-05-23 12:57:20,135.3650072526004
2024-05-23 12:57:20,137.63691614928885
2024-05-23 12:57:20,138.1183572968371
2024-05-23 12:57:20,137.03927009065106
2024-05-23 12:57:20,134.8033560869385
2024-05-23 12:57:20,131.77908457012782
2024-05-23 12:57:20,128.21321405904433
2024-05-23 12:57:20,124.29184137601204
2024-05-23 12:57:20,120.2732127282901
2024-05-23 12:57:20,116.55424426160558
2024-05-23 12:57:20,113.58795194434275
2024-05-23 12:57:20,111.7135497801395
2024-05-23 12:57:20,111.0500140052371
2024-05-23 12:57:20,111.5323366056149
2024-05-23 12:57:20,113.02519108497755
2024-05-23 12:57:20,115.40123979329813
2024-05-23 12:57:20,118.54355896926796
2024-05-23 12:57:20,122.31103031328588
2024-05-23 12:57:20,126.51566683293888
2024-05-23 12:57:20,130.92319864094043
2024-05-23 12:57:20,135.26106621636438
2024-05-23 12:57:20,139.23039135289523
2024-05-23 12:57:20,142.54231700596603
2024-05-23 12:57:20,144.98240348450088
2024-05-23 12:57:20,146.4614552552901
2024-05-23 12:57:20,147.00535395294884
2024-05-23 12:57:20,146.68979982828753
2024-05-23 12:57:20,145.58259680072362
2024-05-23 12:57:20,143.75058657753854
2024-05-23 12:57:20,141.32122125095674
2024-05-23 12:57:20,138.53358699254034
2024-05-23 12:57:20,135.72679759836345
2024-05-23 12:57:20,133.26960573888448
2024-05-23 12:57:20,131.47372278093815
2024-05-23 12:57:20,130.53146092799392
2024-05-23 12:57:20,130.49120142382822
2024-05-23 12:57:20,131.25782799328337
2024-05-23 12:57:20,132.60096682029817
2024-05-23 12:57:20,134.17544867690444
2024-05-23 12:57:20,135.58524868432713
2024-05-23 12:57:20,136.50990604030477
2024-05-23 12:57:20,136.84842514217107
2024-05-23 12:57:20,136.78934256546123
2024-05-23 12:57:20,136.75018778983826
2024-05-23 12:57:20,137.20741749666686
2024-05-23 12:57:20,138.4842091757618
2024-05-23 12:57:20,140.57416267339633
2024-05-23 12:57:20,143.08621614662647
2024-05-23 12:57:20,145.36523006028258
2024-05-23 12:57:20,146.74193283460198
2024-05-23 12:57:20,146.78195803622063
2024-05-23 12:57:20,145.42720339888098
2024-05-23 12:57:20,143.00297720527462
2024-05-23 12:57:20,140.10953124930236
2024-05-23 12:57:20,137.4320994711011
2024-05-23 12:57:20,135.52668628234278
2024-05-23 12:57:20,134.65402936648283
2024-05-23 12:57:20,134.71793568379206
2024-05-23 12:57:20,135.32603588990142
2024-05-23 12:57:20,135.9500527757129
2024-05-23 12:57:20,136.1255723328199
2024-05-23 12:57:20,135.61299412745979
2024-05-23 12:57:20,134.46377496622995
2024-05-23 12:57:20,132.981771006305
2024-05-23 12:57:20,131.6033601925638
2024-05-23 12:57:20,130.7409190250305
2024-05-23 12:57:20,130.64901647356982
2024-05-23 12:57:20,131.36599654220294
2024-05-23 12:57:20,132.74427831610134
2024-05-23 12:57:20,134.53243388938847
2024-05-23 12:57:20,136.45194570253696
2024-05-23 12:57:20,138.24032151967842
2024-05-23 12:57:20,139.6751959777282
2024-05-23 12:57:20,140.6008118004211
2024-05-23 12:57:20,140.956452383603
2024-05-23 12:57:20,140.79346494698135
2024-05-23 12:57:20,140.26566054558344
2024-05-23 12:57:20,139.58278091966068
2024-05-23 12:57:20,138.94167789776714
2024-05-23 12:57:20,138.47906433251572
2024-05-23 12:57:20,138.27315430679772
2024-05-23 12:57:20,138.36381390826514
2024-05-23 12:57:20,138.74409796533857
2024-05-23 12:57:20,139.3307376997394
2024-05-23 12:57:20,139.96830686169062
2024-05-23 12:57:20,140.4939755615657
2024-05-23 12:57:20,140.82189160611367
2024-05-23 12:57:20,140.97552436298434
2024-05-23 12:57:20,141.0336339988839
2024-05-23 12:57:20,141.03247347739418
2024-05-23 12:57:20,140.91527021537738
2024-05-23 12:57:20,140.5811849705767
2024-05-23 12:57:20,139.99272136158243
2024-05-23 12:57:20,139.2555221024303
2024-05-23 12:57:20,138.61908900463348
2024-05-23 12:57:20,138.39644205332067
2024-05-23 12:57:20,138.8353160773794
2024-05-23 12:57:20,140.00774671000872
2024-05-23 12:57:20,141.78278229528337
2024-05-23 12:57:20,143.8865491092927
2024-05-23 12:57:20,146.00228989276692
2024-05-23 12:57:20,147.87051898620194
2024-05-23 12:57:20,149.36921249239222
2024-05-23 12:57:20,150.54083485056807
2024-05-23 12:57:20,151.53420983240667
2024-05-23 12:57:20,152.4855314999932
2024-05-23 12:57:20,153.4151644176496
2024-05-23 12:57:20,154.20189201990766
2024-05-23 12:57:20,154.63736871114224
2024-05-23 12:57:20,154.5230277635057
2024-05-23 12:57:20,153.76772096211906
2024-05-23 12:57:20,152.44635006869632
2024-05-23 12:57:20,150.77943704134776
2024-05-23 12:57:20,149.02773877603727
2024-05-23 12:57:20,147.36435995731406
2024-05-23 12:57:20,145.8132622938851
2024-05-23 12:57:20,144.2882542433986
2024-05-23 12:57:20,142.69193262726503
2024-05-23 12:57:20,141.00322128606942
2024-05-23 12:57:20,139.30283634315109
2024-05-23 12:57:20,137.73432145840982
2024-05-23 12:57:20,136.43363924137066
2024-05-23 12:57:20,135.46161087110613
2024-05-23 12:57:20,134.76394509982086
2024-05-23 12:57:20,134.1838951902387
2024-05-23 12:57:20,133.53828795624077
2024-05-23 12:57:20,132.72104128026697
2024-05-23 12:57:20,131.76682316756046
2024-05-23 12:57:20,130.83796270249198
2024-05-23 12:57:20,130.15125803811057
2024-05-23 12:57:20,129.87942324084895
2024-05-23 12:57:20,130.06247863803557
2024-05-23 12:57:20,130.57299176393573
2024-05-23 12:57:20,131.16194790918485
2024-05-23 12:57:20,131.5620404429693
2024-05-23 12:57:20,131.59220896038056
2024-05-23 12:57:20,131.22046438516955
2024-05-23 12:57:20,130.57483161158788
2024-05-23 12:57:20,129.90321804921237
2024-05-23 12:57:20,129.48018006198407
2024-05-23 12:57:20,129.47994418159647
2024-05-23 12:57:20,129.87546092105364
2024-05-23 12:57:20,130.43602729892518
2024-05-23 12:57:20,130.8486128804647
2024-05-23 12:57:20,130.90003308550473
2024-05-23 12:57:20,130.5971564739202
2024-05-23 12:57:20,130.1411460121553
2024-05-23 12:57:20,129.7888516205698
2024-05-23 12:57:20,129.7095908004204
2024-05-23 12:57:20,129.91970376111252
2024-05-23 12:57:20,130.3126187839958
2024-05-23 12:57:20,130.75440065989795
2024-05-23 12:57:20,131.18458750659678
2024-05-23 12:57:20,131.65236287836242
2024-05-23 12:57:20,132.2512315238667
2024-05-23 12:57:20,132.9958568327766
2024-05-23 12:57:20,133.75531285419189
2024-05-23 12:57:20,134.32448747227087
2024-05-23 12:57:20,134.58420564711292
2024-05-23 12:57:20,134.6147044140187
2024-05-23 12:57:20,134.6760368841308
2024-05-23 12:57:20,135.0746721246075
2024-05-23 12:57:20,135.99596720171394
2024-05-23 12:57:20,137.3883460723133
2024-05-23 12:57:20,138.96718619168524
2024-05-23 12:57:20,140.35477338039632
2024-05-23 12:57:20,141.2804973337944
2024-05-23 12:57:20,141.7084281543657
2024-05-23 12:57:20,141.81373250589522
2024-05-23 12:57:20,141.84374407463446
2024-05-23 12:57:20,141.95990244705442
2024-05-23 12:57:20,142.13976209932085
2024-05-23 12:57:20,142.17911519317028
2024-05-23 12:57:20,141.79321168718727
2024-05-23 12:57:20,140.76478846488092
2024-05-23 12:57:20,139.0585087118162
2024-05-23 12:57:20,136.85356916281293
2024-05-23 12:57:20,134.49929825665794
2024-05-23 12:57:20,132.41453121335246
2024-05-23 12:57:20,130.95347199169103
2024-05-23 12:57:20,130.2840695708417
2024-05-23 12:57:20,130.33543381727623
2024-05-23 12:57:20,130.83531353541085
2024-05-23 12:57:20,131.4089218240793
2024-05-23 12:57:20,131.69461843076
2024-05-23 12:57:20,131.44262936380952
2024-05-23 12:57:20,130.56572522885156
2024-05-23 12:57:20,129.1196431162124
2024-05-23 12:57:20,127.23075212400754
2024-05-23 12:57:21,125.02207048395556
2024-05-23 12:57:21,122.5694687615852
2024-05-23 12:57:21,119.88435846419787
2024-05-23 12:57:21,116.92410604850616
2024-05-23 12:57:21,113.64015360576087
2024-05-23 12:57:21,110.04363193895318
2024-05-23 12:57:21,106.2447929337474
2024-05-23 12:57:21,102.44441272400523
2024-05-23 12:57:21,98.89293728157689
2024-05-23 12:57:21,95.84840177020685
2024-05-23 12:57:21,93.55253140208877
2024-05-23 12:57:21,92.220425717656
2024-05-23 12:57:21,92.01863209206017
2024-05-23 12:57:21,93.00964259339443
2024-05-23 12:57:21,95.0777834265126
2024-05-23 12:57:21,97.89621437496305
2024-05-23 12:57:21,100.99481641195783
2024-05-23 12:57:21,103.91892009042668
2024-05-23 12:57:21,106.384588221622
2024-05-23 12:57:21,108.32939559709659
2024-05-23 12:57:21,109.84050535885524
2024-05-23 12:57:21,111.02818340550483
2024-05-23 12:57:21,111.92928520087858
2024-05-23 12:57:21,112.48348770738822
2024-05-23 12:57:21,112.5796434823855
2024-05-23 12:57:21,112.14613665642005
2024-05-23 12:57:21,111.23947613715605
2024-05-23 12:57:21,110.07180883974885
2024-05-23 12:57:21,108.94913718578657
2024-05-23 12:57:21,108.15804757869356
2024-05-23 12:57:21,107.87465472834094
2024-05-23 12:57:21,108.14172523693534
2024-05-23 12:57:21,108.9001137753459
2024-05-23 12:57:21,110.02592939770214
2024-05-23 12:57:21,111.339842695566
2024-05-23 12:57:21,112.5973319182686
2024-05-23 12:57:21,113.50436732599918
2024-05-23 12:57:21,113.80396573298435
2024-05-23 12:57:21,113.42265558609378
2024-05-23 12:57:21,112.57805487135138
2024-05-23 12:57:21,111.72669840133187
2024-05-23 12:57:21,111.3377436443909
2024-05-23 12:57:21,111.63466503457884
2024-05-23 12:57:21,112.49651894391968
2024-05-23 12:57:21,113.59013100734158
2024-05-23 12:57:21,114.62353023987636
2024-05-23 12:57:21,115.52558102827251
2024-05-23 12:57:21,116.42905211776298
2024-05-23 12:57:21,117.50398136346968
2024-05-23 12:57:21,118.80400150866454
2024-05-23 12:57:21,120.24151071227492
2024-05-23 12:57:21,121.66652966953023
2024-05-23 12:57:21,122.94912963682953
2024-05-23 12:57:21,124.00865146953107
2024-05-23 12:57:21,124.80659194518294
2024-05-23 12:57:21,125.34070953438118
2024-05-23 12:57:21,125.65113303852337
2024-05-23 12:57:21,125.82245498146902
2024-05-23 12:57:21,125.96449653541049
2024-05-23 12:57:21,126.17045618467327
2024-05-23 12:57:21,126.47207492251847
2024-05-23 12:57:21,126.82084513942165
2024-05-23 12:57:21,127.10085228431072
2024-05-23 12:57:21,127.15001990629838
2024-05-23 12:57:21,126.78584003729652
2024-05-23 12:57:21,125.86698110385636
2024-05-23 12:57:21,124.39062373572087
2024-05-23 12:57:21,122.55436128156428
2024-05-23 12:57:21,120.71039466321196
2024-05-23 12:57:21,119.22489407521059
2024-05-23 12:57:21,118.33840172799414
2024-05-23 12:57:21,118.12161115124711
2024-05-23 12:57:21,118.53235765099377
2024-05-23 12:57:21,119.49459466575685
2024-05-23 12:57:21,120.92530886314042
2024-05-23 12:57:21,122.70720437761315
2024-05-23 12:57:21,124.6588367982544
2024-05-23 12:57:21,126.55213015631796
2024-05-23 12:57:21,128.1831190015599
2024-05-23 12:57:21,129.4456315734227
2024-05-23 12:57:21,130.34191570357527
2024-05-23 12:57:21,130.92025592727907
2024-05-23 12:57:21,131.20258143369506
2024-05-23 12:57:21,131.16402400101035
2024-05-23 12:57:21,130.7550808391539
2024-05-23 12:57:21,129.91866212602622
2024-05-23 12:57:21,128.58872355227405
2024-05-23 12:57:21,126.69200695870711
2024-05-23 12:57:21,124.16555600056259
2024-05-23 12:57:21,120.98644623701843
2024-05-23 12:57:21,117.21204103461311
2024-05-23 12:57:21,113.02588235210436
2024-05-23 12:57:21,108.76685484853002
2024-05-23 12:57:21,104.91102342555149
2024-05-23 12:57:21,101.98695956095324
2024-05-23 12:57:21,100.43082748248206
2024-05-23 12:57:21,100.41899058104369
2024-05-23 12:57:21,101.74537232816807
2024-05-23 12:57:21,103.81940057662192
2024-05-23 12:57:21,105.81041508593003
2024-05-23 12:57:21,106.87282306369409
2024-05-23 12:57:21,106.3470621414385
2024-05-23 12:57:21,103.88466197129497
2024-05-23 12:57:21,99.51179169703009
2024-05-23 12:57:21,93.64313217933596
2024-05-23 12:57:21,87.01927901207378
2024-05-23 12:57:21,80.55006738901646
2024-05-23 12:57:21,75.10613935782771
2024-05-23 12:57:21,71.33660605668675
2024-05-23 12:57:21,69.5638016986217
2024-05-23 12:57:21,69.76435901657818
2024-05-23 12:57:21,71.63072719858762
2024-05-23 12:57:21,74.6918882509294
2024-05-23 12:57:21,78.44261081857738
2024-05-23 12:57:21,82.43152030016836
2024-05-23 12:57:21,86.30331040482933
2024-05-23 12:57:21,89.82187185837823
2024-05-23 12:57:21,92.88251507524257
2024-05-23 12:57:21,95.49393897628924
2024-05-23 12:57:21,97.72415803129098
2024-05-23 12:57:21,99.64599677398269
2024-05-23 12:57:21,101.32679838584252
2024-05-23 12:57:21,102.86346108679096
2024-05-23 12:57:21,104.42292433526171
2024-05-23 12:57:21,106.25159554158667
2024-05-23 12:57:21,108.63892653091204
2024-05-23 12:57:21,111.83238559151202
2024-05-23 12:57:21,115.91904144823981
2024-05-23 12:57:21,120.72401675999825
2024-05-23 12:57:21,125.7925843753759
2024-05-23 12:57:21,130.48770108881325
2024-05-23 12:57:21,134.17186938389858
2024-05-23 12:57:21,136.39943388783843
2024-05-23 12:57:21,137.0461639009897
2024-05-23 12:57:21,136.3383153901849
2024-05-23 12:57:21,134.783327593941
2024-05-23 12:57:21,133.0265252945372
2024-05-23 12:57:21,131.67226486800476
2024-05-23 12:57:21,131.12179388286253
2024-05-23 12:57:21,131.476165439141
2024-05-23 12:57:21,132.53062520960611
2024-05-23 12:57:21,133.86266163893777
2024-05-23 12:57:21,134.987286267294
2024-05-23 12:57:21,135.52749250200836
2024-05-23 12:57:21,135.34874478059524
2024-05-23 12:57:21,134.62023354260657
2024-05-23 12:57:21,133.7590812209376
2024-05-23 12:57:21,133.23146785297823
2024-05-23 12:57:21,133.2888502153187
2024-05-23 12:57:21,133.81565071092228
2024-05-23 12:57:21,134.41201398947587
2024-05-23 12:57:21,134.6626129635571
2024-05-23 12:57:21,134.40836797694132
2024-05-23 12:57:21,133.84343545614675
2024-05-23 12:57:21,133.38691317097354
2024-05-23 12:57:21,133.42957160566957
2024-05-23 12:57:21,134.12853936407515
2024-05-23 12:57:21,135.376372852349
2024-05-23 12:57:21,136.93777753671642
2024-05-23 12:57:21,138.62300017766808
2024-05-23 12:57:21,140.36340464344454
2024-05-23 12:57:21,142.17189106849497
2024-05-23 12:57:21,144.06513890974784
2024-05-23 12:57:21,146.00128880452485
2024-05-23 12:57:21,147.83257592127404
2024-05-23 12:57:21,149.2893033804466
2024-05-23 12:57:21,150.04039413545806
2024-05-23 12:57:21,149.83276776749466
2024-05-23 12:57:21,148.64120446817046
2024-05-23 12:57:21,146.7359049579936
2024-05-23 12:57:21,144.6100546814524
2024-05-23 12:57:21,142.78658855144323
2024-05-23 12:57:21,141.60468196666562
2024-05-23 12:57:21,141.1126578070214
2024-05-23 12:57:21,141.12335927213888
2024-05-23 12:57:21,141.3662703528022
2024-05-23 12:57:21,141.6114437095416
2024-05-23 12:57:21,141.6939872574671
2024-05-23 12:57:21,141.46512285261247
2024-05-23 12:57:21,140.74880550894264
2024-05-23 12:57:21,139.37027462448538
2024-05-23 12:57:21,137.2585332227546
2024-05-23 12:57:21,134.5489128965655
2024-05-23 12:57:21,131.5966187152668
2024-05-23 12:57:21,128.87657767194221
2024-05-23 12:57:21,126.82139158440665
2024-05-23 12:57:21,125.66889125180624
2024-05-23 12:57:21,125.36164683237244
2024-05-23 12:57:21,125.52396677492419
2024-05-23 12:57:21,125.54763526163936
2024-05-23 12:57:21,124.78737910345298
2024-05-23 12:57:21,122.79128553434744
2024-05-23 12:57:21,119.45293028203689
2024-05-23 12:57:21,115.02000949729272
2024-05-23 12:57:21,109.97486353902033
2024-05-23 12:57:21,104.8560367721283
2024-05-23 12:57:21,100.1041148349908
2024-05-23 12:57:21,95.9896139091938
2024-05-23 12:57:21,92.62917447412158
2024-05-23 12:57:21,90.04934153075453
2024-05-23 12:57:21,88.2468552944066
2024-05-23 12:57:21,87.22501491719069
2024-05-23 12:57:21,87.01742629481218
2024-05-23 12:57:21,87.70359180088452
2024-05-23 12:57:21,89.39055436660097
2024-05-23 12:57:21,92.13495815824912
2024-05-23 12:57:21,95.83031826906424
2024-05-23 12:57:21,100.14126601022726
2024-05-23 12:57:21,104.55967983477522
2024-05-23 12:57:21,108.56717058666901
2024-05-23 12:57:21,111.80006932552904
2024-05-23 12:57:21,114.11904892226039
2024-05-23 12:57:21,115.56495856500942
2024-05-23 12:57:21,116.25781184884598
2024-05-23 12:57:21,116.318563118041
2024-05-23 12:57:21,115.85441438120098
2024-05-23 12:57:21,114.9836020378135
2024-05-23 12:57:21,113.8474387495925
2024-05-23 12:57:21,112.58789368241654
2024-05-23 12:57:21,111.31336316480866
2024-05-23 12:57:21,110.08783001358111
2024-05-23 12:57:21,108.9593549566213
2024-05-23 12:57:21,108.01004677096248
2024-05-23 12:57:21,107.37479055208995
2024-05-23 12:57:21,107.17628510598176
2024-05-23 12:57:21,107.39894594581173
2024-05-23 12:57:21,107.81458743318716
2024-05-23 12:57:21,108.05431979016515
2024-05-23 12:57:21,107.79285100014812
2024-05-23 12:57:21,106.90931565436394
2024-05-23 12:57:21,105.51277180374521
2024-05-23 12:57:21,103.84050342042302
2024-05-23 12:57:21,102.13765105963921
2024-05-23 12:57:21,100.61259520494441
2024-05-23 12:57:21,99.45950214963497
2024-05-23 12:57:21,98.86917817024056
2024-05-23 12:57:21,98.97727265541562
2024-05-23 12:57:21,99.77743204776701
2024-05-23 12:57:21,101.08142634391491
2024-05-23 12:57:21,102.59340247879906
2024-05-23 12:57:21,104.0748891294248
2024-05-23 12:57:21,105.47078450596071
2024-05-23 12:57:21,106.87045499754423
2024-05-23 12:57:21,108.33169628856122
2024-05-23 12:57:21,109.73415661148974
2024-05-23 12:57:21,110.79734206600021
2024-05-23 12:57:21,111.25072760608526
2024-05-23 12:57:21,111.02206185490002
2024-05-23 12:57:21,110.29907331898393
2024-05-23 12:57:21,109.42167742334043
2024-05-23 12:57:22,108.69571813343191
2024-05-23 12:57:22,108.27061391343257
2024-05-23 12:57:22,108.15008025930781
2024-05-23 12:57:22,108.28777823724771
2024-05-23 12:57:22,108.67212659089768
2024-05-23 12:57:22,109.34666375068635
2024-05-23 12:57:22,110.37250912040787
2024-05-23 12:57:22,111.7679441947651
2024-05-23 12:57:22,113.46359310185917
2024-05-23 12:57:22,115.29690387060168
2024-05-23 12:57:22,117.04506517876192
2024-05-23 12:57:22,118.48279713830877
2024-05-23 12:57:22,119.45171699456115
2024-05-23 12:57:22,119.92086075260875
2024-05-23 12:57:22,120.0011669223295
2024-05-23 12:57:22,119.88533780156907
2024-05-23 12:57:22,119.73504025424424
2024-05-23 12:57:22,119.58312666121196
2024-05-23 12:57:22,119.31243777638096
2024-05-23 12:57:22,118.72174684198336
2024-05-23 12:57:22,117.63329628546875
2024-05-23 12:57:22,115.97702431399689
2024-05-23 12:57:22,113.81785925392923
2024-05-23 12:57:22,111.3362725954477
2024-05-23 12:57:22,108.78064492279692
2024-05-23 12:57:22,106.40028401137675
2024-05-23 12:57:22,104.38409125158718
2024-05-23 12:57:22,102.84804050449914
2024-05-23 12:57:22,101.88127597836132
2024-05-23 12:57:22,101.59803314394242
2024-05-23 12:57:22,102.1337551662074
2024-05-23 12:57:22,103.58307715597977
2024-05-23 12:57:22,105.92269323705946
2024-05-23 12:57:22,108.95336389156698
2024-05-23 12:57:22,112.29087529433703
2024-05-23 12:57:22,115.45094439020387
2024-05-23 12:57:22,118.01996681461969
2024-05-23 12:57:22,119.79235518168942
2024-05-23 12:57:22,120.75795369052452
2024-05-23 12:57:22,120.97885424888223
2024-05-23 12:57:22,120.50318571268338
2024-05-23 12:57:22,119.39070588498502
2024-05-23 12:57:22,117.78925898398587
2024-05-23 12:57:22,115.96519290945513
2024-05-23 12:57:22,114.25064701701075
2024-05-23 12:57:22,112.93638537468924
2024-05-23 12:57:22,112.17358671552606
2024-05-23 12:57:22,111.94710132270605
2024-05-23 12:57:22,112.1383016618178
2024-05-23 12:57:22,112.63222932428637
2024-05-23 12:57:22,113.39074058133961
2024-05-23 12:57:22,114.42971969085998
2024-05-23 12:57:22,115.7019447326089
2024-05-23 12:57:22,116.9768417233711
2024-05-23 12:57:22,117.84052228663863
2024-05-23 12:57:22,117.85358746212103
2024-05-23 12:57:22,116.77443903430498
2024-05-23 12:57:22,114.70504117757793
2024-05-23 12:57:22,112.075468390042
2024-05-23 12:57:22,109.4862638744782
2024-05-23 12:57:22,107.4927219247301
2024-05-23 12:57:22,106.41871624917165
2024-05-23 12:57:22,106.26182128313171
2024-05-23 12:57:22,106.72004055424111
2024-05-23 12:57:22,107.32667653049553
2024-05-23 12:57:22,107.63875070049387
2024-05-23 12:57:22,107.41390508361614
2024-05-23 12:57:22,106.7208127843787
2024-05-23 12:57:22,105.93851069971168
2024-05-23 12:57:22,105.62081524729078
2024-05-23 12:57:22,106.25223859660159
2024-05-23 12:57:22,107.98997130069912
2024-05-23 12:57:22,110.52650878392888
2024-05-23 12:57:22,113.16908642514092
2024-05-23 12:57:22,115.1130990016778
2024-05-23 12:57:22,115.77013106457508
2024-05-23 12:57:22,114.99132891552303
2024-05-23 12:57:22,113.10249853111065
2024-05-23 12:57:22,110.76349090497126
2024-05-23 12:57:22,108.72488640286085
2024-05-23 12:57:22,107.57638505542208
2024-05-23 12:57:22,107.57797723860097
2024-05-23 12:57:22,108.63747687564498
2024-05-23 12:57:22,110.4365415636697
2024-05-23 12:57:22,112.62849242510144
2024-05-23 12:57:22,114.99468851793038
2024-05-23 12:57:22,117.48020787266076
2024-05-23 12:57:22,120.10293764805459
2024-05-23 12:57:22,122.80786933882476
2024-05-23 12:57:22,125.37616767922324
2024-05-23 12:57:22,127.45606511877496
2024-05-23 12:57:22,128.69013236362463
2024-05-23 12:57:22,128.85362422007137
2024-05-23 12:57:22,127.93475891904485
2024-05-23 12:57:22,126.14425380289559
2024-05-23 12:57:22,123.87784565401891
2024-05-23 12:57:22,121.6494964071744
2024-05-23 12:57:22,119.99271931175304
2024-05-23 12:57:22,119.3334280652323
2024-05-23 12:57:22,119.86569525177855
2024-05-23 12:57:22,121.47593923845947
2024-05-23 12:57:22,123.74860216293162
2024-05-23 12:57:22,126.06509315422501
2024-05-23 12:57:22,127.7857288833578
2024-05-23 12:57:22,128.46184880754737
2024-05-23 12:57:22,127.98160101971813
2024-05-23 12:57:22,126.57655651155184
2024-05-23 12:57:22,124.69937487886929
2024-05-23 12:57:22,122.83821171258843
2024-05-23 12:57:22,121.3445092060096
2024-05-23 12:57:22,120.35202401688473
2024-05-23 12:57:22,119.82246768904798
2024-05-23 12:57:22,119.65797912191559
2024-05-23 12:57:22,119.77939564892331
2024-05-23 12:57:22,120.13180762703193
2024-05-23 12:57:22,120.65177664306078
2024-05-23 12:57:22,121.24271374205027
2024-05-23 12:57:22,121.78345085674917
2024-05-23 12:57:22,122.16701060490279
2024-05-23 12:57:22,122.33414558807488
2024-05-23 12:57:22,122.26584540285396
2024-05-23 12:57:22,121.95023522367704
2024-05-23 12:57:22,121.37681816713996
2024-05-23 12:57:22,120.57762338402162
2024-05-23 12:57:22,119.67549089989372
2024-05-23 12:57:22,118.88853881405532
2024-05-23 12:57:22,118.47389024376245
2024-05-23 12:57:22,118.62726534732104
2024-05-23 12:57:22,119.38081333583305
2024-05-23 12:57:22,120.56274636677878
2024-05-23 12:57:22,121.86485690550533
2024-05-23 12:57:22,122.98920283347634
2024-05-23 12:57:22,123.77512455575102
2024-05-23 12:57:22,124.22630061947444
2024-05-23 12:57:22,124.4508627270462
2024-05-23 12:57:22,124.58832252296042
2024-05-23 12:57:22,124.76471143207532
2024-05-23 12:57:22,125.05991871636054
2024-05-23 12:57:22,125.47073602647532
2024-05-23 12:57:22,125.8874106856199
2024-05-23 12:57:22,126.11875976242439
2024-05-23 12:57:22,125.98684241172676
2024-05-23 12:57:22,125.4615808317087
2024-05-23 12:57:22,124.74744264250084
2024-05-23 12:57:22,124.23517740169265
2024-05-23 12:57:22,124.31726312210215
2024-05-23 12:57:22,125.18091913833076
2024-05-23 12:57:22,126.73350336918813
2024-05-23 12:57:22,128.71401384814916
2024-05-23 12:57:22,130.87789601972554
2024-05-23 12:57:22,133.09163946893116
2024-05-23 12:57:22,135.295151979773
2024-05-23 12:57:22,137.42979838151481
2024-05-23 12:57:22,139.43287386625175
2024-05-23 12:57:22,141.28978425290407
2024-05-23 12:57:22,143.0525093080183
2024-05-23 12:57:22,144.76604524867292
2024-05-23 12:57:22,146.35466725118502
2024-05-23 12:57:22,147.58228209613804
2024-05-23 12:57:22,148.14276171272152
2024-05-23 12:57:22,147.8254147876546
2024-05-23 12:57:22,146.64341572723004
2024-05-23 12:57:22,144.83895060430905
2024-05-23 12:57:22,142.76219625380878
2024-05-23 12:57:22,140.69974614403444
2024-05-23 12:57:22,138.74040176410483
2024-05-23 12:57:22,136.73333193357095
2024-05-23 12:57:22,134.3718649177994
2024-05-23 12:57:22,131.39819934003378
2024-05-23 12:57:22,127.83088460124863
2024-05-23 12:57:22,124.05656190306823
2024-05-23 12:57:22,120.70313254679674
2024-05-23 12:57:22,118.36395672291253
2024-05-23 12:57:22,117.33179513779095
2024-05-23 12:57:22,117.47724881770844
2024-05-23 12:57:22,118.31700101356394
2024-05-23 12:57:22,119.22243492475603
2024-05-23 12:57:22,119.66269949104449
2024-05-23 12:57:22,119.38344100501696
2024-05-23 12:57:22,118.48289922668755
2024-05-23 12:57:22,117.40161693990696
2024-05-23 12:57:22,116.82372103875686
2024-05-23 12:57:22,117.44937120522974
2024-05-23 12:57:22,119.67406544122043
2024-05-23 12:57:22,123.35083815525412
2024-05-23 12:57:22,127.80489261403103
2024-05-23 12:57:22,132.0892236331161
2024-05-23 12:57:22,135.31751168835197
2024-05-23 12:57:22,136.9183104240776
2024-05-23 12:57:22,136.74565972780854
2024-05-23 12:57:22,135.0475071323013
2024-05-23 12:57:22,132.32778642459164
2024-05-23 12:57:22,129.16288059017165
2024-05-23 12:57:22,126.03638167946237
2024-05-23 12:57:22,123.23305192608944
2024-05-23 12:57:22,120.810194585261
2024-05-23 12:57:22,118.65110746728713
2024-05-23 12:57:22,116.57926798837032
2024-05-23 12:57:22,114.47551119221079
2024-05-23 12:57:22,112.3344586390266
2024-05-23 12:57:22,110.24668836120541
2024-05-23 12:57:22,108.3553674186745
2024-05-23 12:57:22,106.83498335787966
2024-05-23 12:57:22,105.87917591933852
2024-05-23 12:57:22,105.65403014381111
2024-05-23 12:57:22,106.22092818730066
2024-05-23 12:57:22,107.48952097368732
2024-05-23 12:57:22,109.24231617673944
2024-05-23 12:57:22,111.20481404304276
2024-05-23 12:57:22,113.10432545933132
2024-05-23 12:57:22,114.69209682534452
2024-05-23 12:57:22,115.74981714425859
2024-05-23 12:57:22,116.11026531756869
2024-05-23 12:57:22,115.693562206551
2024-05-23 12:57:22,114.54011970928873
2024-05-23 12:57:22,112.82924892933283
2024-05-23 12:57:22,110.87797864876995
2024-05-23 12:57:22,109.10539714961693
2024-05-23 12:57:22,107.95325714540967
2024-05-23 12:57:22,107.77893006617221
2024-05-23 12:57:22,108.75432853603306
2024-05-23 12:57:22,110.80181339705813
2024-05-23 12:57:22,113.59041317420633
2024-05-23 12:57:22,116.60810824967012
2024-05-23 12:57:22,119.29961900909103
2024-05-23 12:57:22,121.22116184630796
2024-05-23 12:57:22,122.14573896656613
2024-05-23 12:57:22,122.07146012674185
2024-05-23 12:57:22,121.14851628905092
2024-05-23 12:57:22,119.60944511686476
2024-05-23 12:57:22,117.76969041395765
2024-05-23 12:57:22,116.05450257182436
2024-05-23 12:57:22,114.94770838318396
2024-05-23 12:57:22,114.83837067197246
2024-05-23 12:57:22,115.84968758383474
2024-05-23 12:57:22,117.74639708272836
2024-05-23 12:57:22,119.96963368457507
2024-05-23 12:57:22,121.80677177975222
2024-05-23 12:57:22,122.64997752168863
2024-05-23 12:57:22,122.22964744805299
2024-05-23 12:57:22,120.69952941745339
2024-05-23 12:57:22,118.53523485297289
2024-05-23 12:57:22,116.31898173718572
2024-05-23 12:57:22,114.52830532363075
2024-05-23 12:57:22,113.40952482805524
2024-05-23 12:57:22,112.95867089147549
2024-05-23 12:57:22,112.99369486254608
2024-05-23 12:57:22,113.26764112475078
2024-05-23 12:57:22,113.5538475412761
2024-05-23 12:57:22,113.67089975747794
2024-05-23 12:57:22,113.48142328633756
2024-05-23 12:57:23,112.91553546873953
2024-05-23 12:57:23,112.02039170685633
2024-05-23 12:57:23,110.98720150325185
2024-05-23 12:57:23,110.10992014013812
2024-05-23 12:57:23,109.67667151105007
2024-05-23 12:57:23,109.84304350934875
2024-05-23 12:57:23,110.5546506487907
2024-05-23 12:57:23,111.56671426192189
2024-05-23 12:57:23,112.55644284500612
2024-05-23 12:57:23,113.26973228494579
2024-05-23 12:57:23,113.62516911576904
2024-05-23 12:57:23,113.72475899301021
2024-05-23 12:57:23,113.77246633729415
2024-05-23 12:57:23,113.94796947388686
2024-05-23 12:57:23,114.30665206275097
2024-05-23 12:57:23,114.76669034083841
2024-05-23 12:57:23,115.18265190899943
2024-05-23 12:57:23,115.43031104964604
2024-05-23 12:57:23,115.43516381257749
2024-05-23 12:57:23,115.16723329450038
2024-05-23 12:57:23,114.6649688532791
2024-05-23 12:57:23,114.08507161956915
2024-05-23 12:57:23,113.71012271413004
2024-05-23 12:57:23,113.8755692951817
2024-05-23 12:57:23,114.85685857263267
2024-05-23 12:57:23,116.77759545986375
2024-05-23 12:57:23,119.54729632095419
2024-05-23 12:57:23,122.81944650623349
2024-05-23 12:57:23,126.01166150552399
2024-05-23 12:57:23,128.4392329880338
2024-05-23 12:57:23,129.53161471700437
2024-05-23 12:57:23,129.0308345128384
2024-05-23 12:57:23,127.08402328094756
2024-05-23 12:57:23,124.19572849208556
2024-05-23 12:57:23,121.05758985644869
2024-05-23 12:57:23,118.32872071416408
2024-05-23 12:57:23,116.49445658435718
2024-05-23 12:57:23,115.91489311419868
2024-05-23 12:57:23,117.00291090738708
2024-05-23 12:57:23,120.26671444144742
2024-05-23 12:57:23,126.0212005709954
2024-05-23 12:57:23,133.9362009688646
2024-05-23 12:57:23,142.83529525577822
2024-05-23 12:57:23,150.97480897155498
2024-05-23 12:57:23,156.6318455702518
2024-05-23 12:57:23,158.65288729574127
2024-05-23 12:57:23,156.75975143006198
2024-05-23 12:57:23,151.59327422321232
2024-05-23 12:57:23,144.50133569135355
2024-05-23 12:57:23,137.0846138507091
2024-05-23 12:57:23,130.65389442568423
2024-05-23 12:57:23,125.87770468785163
2024-05-23 12:57:23,122.78625363084778
2024-05-23 12:57:23,121.02800958122884
2024-05-23 12:57:23,120.13958139155531
2024-05-23 12:57:23,119.69970432309839
2024-05-23 12:57:23,119.40807912417567
2024-05-23 12:57:23,119.14984573472378
2024-05-23 12:57:23,119.00977929387896
2024-05-23 12:57:23,119.1785331152102
2024-05-23 12:57:23,119.79934689163457
2024-05-23 12:57:23,120.88136269559791
2024-05-23 12:57:23,122.33834545886648
2024-05-23 12:57:23,124.07965871899137
2024-05-23 12:57:23,126.04363653925921
2024-05-23 12:57:23,128.1652223282487
2024-05-23 12:57:23,130.3679278648403
2024-05-23 12:57:23,132.62065757977686
2024-05-23 12:57:23,134.97369176375466
2024-05-23 12:57:23,137.47412928737148
2024-05-23 12:57:23,140.00121053544242
2024-05-23 12:57:23,142.2009294721703
2024-05-23 12:57:23,143.65775512215492
2024-05-23 12:57:23,144.2068127379605
2024-05-23 12:57:23,144.09773466534074
2024-05-23 12:57:23,143.8257203088624
2024-05-23 12:57:23,143.75604760967892
2024-05-23 12:57:23,143.84628246906473
2024-05-23 12:57:23,143.66297185070366
2024-05-23 12:57:23,142.6524684414073
2024-05-23 12:57:23,140.47385414651563
2024-05-23 12:57:23,137.2038663430588
2024-05-23 12:57:23,133.32702699177602
2024-05-23 12:57:23,129.54763852371607
2024-05-23 12:57:23,126.537073808216
2024-05-23 12:57:23,124.73533388662034
2024-05-23 12:57:23,124.27048836700854
2024-05-23 12:57:23,124.98020083073548
2024-05-23 12:57:23,126.48087043020381
2024-05-23 12:57:23,128.25958092377854
2024-05-23 12:57:23,129.79892747393794
2024-05-23 12:57:23,130.7195165530149
2024-05-23 12:57:23,130.87762634875997
2024-05-23 12:57:23,130.36234488094226
2024-05-23 12:57:23,129.39681147200372
2024-05-23 12:57:23,128.20223108082115
2024-05-23 12:57:23,126.89346431784523
2024-05-23 12:57:23,125.45207650988202
2024-05-23 12:57:23,123.78757051067765
2024-05-23 12:57:23,121.8552721454597
2024-05-23 12:57:23,119.76177200211099
2024-05-23 12:57:23,117.78282974691287
2024-05-23 12:57:23,116.26356687729546
2024-05-23 12:57:23,115.4471340560465
2024-05-23 12:57:23,115.33015367348077
2024-05-23 12:57:23,115.63088584585618
2024-05-23 12:57:23,115.88849968456633
2024-05-23 12:57:23,115.6404999074795
2024-05-23 12:57:23,114.59947275647013
2024-05-23 12:57:23,112.76798771840892
2024-05-23 12:57:23,110.45729787298218
2024-05-23 12:57:23,108.19785453176809
2024-05-23 12:57:23,106.5632601095199
2024-05-23 12:57:23,105.97562453251656
2024-05-23 12:57:23,106.58085220749055
2024-05-23 12:57:23,108.24457254827486
2024-05-23 12:57:23,110.6489336076332
2024-05-23 12:57:23,113.42132780227219
2024-05-23 12:57:23,116.22014477832484
2024-05-23 12:57:23,118.74318027168283
2024-05-23 12:57:23,120.70259240679621
2024-05-23 12:57:23,121.85710075245727
2024-05-23 12:57:23,122.13483547480968
2024-05-23 12:57:23,121.75915696923212
2024-05-23 12:57:23,121.23659883867923
2024-05-23 12:57:23,121.15584572976357
2024-05-23 12:57:23,121.89888532356711
2024-05-23 12:57:23,123.43810149520006
2024-05-23 12:57:23,125.33999230419343
2024-05-23 12:57:23,126.97602990213231
2024-05-23 12:57:23,127.82725971551272
2024-05-23 12:57:23,127.71158993306271
2024-05-23 12:57:23,126.80322130008861
2024-05-23 12:57:23,125.4538514539064
2024-05-23 12:57:23,123.9692716462509
2024-05-23 12:57:23,122.50388973562042
2024-05-23 12:57:23,121.09722845881498
2024-05-23 12:57:23,119.75363089775624
2024-05-23 12:57:23,118.48465830320217
2024-05-23 12:57:23,117.32258617071693
2024-05-23 12:57:23,116.3426410616914
2024-05-23 12:57:23,115.68350884821332
2024-05-23 12:57:23,115.51653868175696
2024-05-23 12:57:23,115.95042423437091
2024-05-23 12:57:23,116.93334164773516
2024-05-23 12:57:23,118.23580973327951
2024-05-23 12:57:23,119.532279005803
2024-05-23 12:57:23,120.52248289075918
2024-05-23 12:57:23,121.02337783953105
2024-05-23 12:57:23,120.99866090574054
2024-05-23 12:57:23,120.52747752206521
2024-05-23 12:57:23,119.74652051094624
2024-05-23 12:57:23,118.8144973629632
2024-05-23 12:57:23,117.91018414232497
2024-05-23 12:57:23,117.22625616789689
2024-05-23 12:57:23,116.93086153098339
2024-05-23 12:57:23,117.1141500987256
2024-05-23 12:57:23,117.75119855109472
2024-05-23 12:57:23,118.6943988583751
2024-05-23 12:57:23,119.70302949541686
2024-05-23 12:57:23,120.52638759458709
2024-05-23 12:57:23,121.02493446849313
2024-05-23 12:57:23,121.25324924359164
2024-05-23 12:57:23,121.43866651537864
2024-05-23 12:57:23,121.8828476122845
2024-05-23 12:57:23,122.86607948664593
2024-05-23 12:57:23,124.58306462465283
2024-05-23 12:57:23,127.08608047804532
2024-05-23 12:57:23,130.23743596307474
2024-05-23 12:57:23,133.71025547864855
2024-05-23 12:57:23,137.06275721059833
2024-05-23 12:57:23,139.88314787295894
2024-05-23 12:57:23,141.9683847232854
2024-05-23 12:57:23,143.4330870999593
2024-05-23 12:57:23,144.62869985918036
2024-05-23 12:57:23,145.88893371813887
2024-05-23 12:57:23,147.2941359593543
2024-05-23 12:57:23,148.65056486255045
2024-05-23 12:57:23,149.69098571914756
2024-05-23 12:57:23,150.3145937026087
2024-05-23 12:57:23,150.67298250730528
2024-05-23 12:57:23,151.06431559544382
2024-05-23 12:57:23,151.7561792344742
2024-05-23 12:57:23,152.8768802085988
2024-05-23 12:57:23,154.42236119227593
2024-05-23 12:57:23,156.3394886615857
2024-05-23 12:57:23,158.61138278787794
2024-05-23 12:57:23,161.27943499316447
2024-05-23 12:57:23,164.3872757156631
2024-05-23 12:57:23,167.8929355357467
2024-05-23 12:57:23,171.61855553201272
2024-05-23 12:57:23,175.2797340363787
2024-05-23 12:57:23,178.5858497691493
2024-05-23 12:57:23,181.3571012492131
2024-05-23 12:57:23,183.58639247175847
2024-05-23 12:57:23,185.40921831900292
2024-05-23 12:57:23,187.01305942451228
2024-05-23 12:57:23,188.55256978356857
2024-05-23 12:57:23,190.11279638894266
2024-05-23 12:57:23,191.72229591095976
2024-05-23 12:57:23,193.3911583518526
2024-05-23 12:57:23,195.1321935367569
2024-05-23 12:57:23,196.93355911934003
2024-05-23 12:57:23,198.6985904427481
2024-05-23 12:57:23,200.20989886812424
2024-05-23 12:57:23,201.15913572498934
2024-05-23 12:57:23,201.22555163199902
2024-05-23 12:57:23,200.15600628327377
2024-05-23 12:57:23,197.82100498590546
2024-05-23 12:57:23,194.24474914650284
2024-05-23 12:57:23,189.6088207806584
2024-05-23 12:57:23,184.23731088444723
2024-05-23 12:57:23,178.58219623919672
2024-05-23 12:57:23,173.20851868683988
2024-05-23 12:57:23,168.74648766768013
2024-05-23 12:57:23,165.78394990637398
2024-05-23 12:57:23,164.7245758530879
2024-05-23 12:57:23,165.68361983770612
2024-05-23 12:57:23,168.47559126728095
2024-05-23 12:57:23,172.67934515372437
2024-05-23 12:57:23,177.7245873119961
2024-05-23 12:57:23,182.96210736775504
2024-05-23 12:57:23,187.72402417146887
2024-05-23 12:57:23,191.40536592998785
2024-05-23 12:57:23,193.5757902843427
2024-05-23 12:57:23,194.0791925425821
2024-05-23 12:57:23,193.0574633554801
2024-05-23 12:57:23,190.8743993456356
2024-05-23 12:57:23,187.9852580917201
2024-05-23 12:57:23,184.82748533941717
2024-05-23 12:57:23,181.76383068092576
2024-05-23 12:57:23,179.0440691212829
2024-05-23 12:57:23,176.75060121953712
2024-05-23 12:57:23,174.75729228687987
2024-05-23 12:57:23,172.77350172034147
2024-05-23 12:57:23,170.4971420922703
2024-05-23 12:57:23,167.79604373256385
2024-05-23 12:57:23,164.79049063387336
2024-05-23 12:57:23,161.7815622253934
2024-05-23 12:57:23,159.09051488868127
2024-05-23 12:57:23,156.92752765156186
2024-05-23 12:57:23,155.35228270209058
2024-05-23 12:57:23,154.2978503507264
2024-05-23 12:57:23,153.60181467870535
2024-05-23 12:57:23,153.03341441151468
2024-05-23 12:57:23,152.34633898836822
2024-05-23 12:57:23,151.364758529996
2024-05-23 12:57:24,150.05938747785785
2024-05-23 12:57:24,148.5588490708489
2024-05-23 12:57:24,147.07842965948058
2024-05-23 12:57:24,145.79781863075797
2024-05-23 12:57:24,144.7508219561263
2024-05-23 12:57:24,143.79253473645022
2024-05-23 12:57:24,142.67657969788678
2024-05-23 12:57:24,141.20593638952835
2024-05-23 12:57:24,139.35863444622976
2024-05-23 12:57:24,137.29773911361292
2024-05-23 12:57:24,135.25986617704595
2024-05-23 12:57:24,133.40945002963267
2024-05-23 12:57:24,131.76321275407147
2024-05-23 12:57:24,130.2173767304279
2024-05-23 12:57:24,128.63298866097975
2024-05-23 12:57:24,126.92544625784221
2024-05-23 12:57:24,125.12481604966918
2024-05-23 12:57:24,123.37567696334133
2024-05-23 12:57:24,121.86979085514405
2024-05-23 12:57:24,120.76483764687991
2024-05-23 12:57:24,120.15421972320281
2024-05-23 12:57:24,120.07876002217083
2024-05-23 12:57:24,120.51313052046999
2024-05-23 12:57:24,121.31284980180202
2024-05-23 12:57:24,122.19636326050144
2024-05-23 12:57:24,122.82636222049622
2024-05-23 12:57:24,122.94877737211564
2024-05-23 12:57:24,122.4780534515074
2024-05-23 12:57:24,121.46965012516301
2024-05-23 12:57:24,120.02732098102884
2024-05-23 12:57:24,118.23684903875683
2024-05-23 12:57:24,116.17855249378061
2024-05-23 12:57:24,113.99727465561524
2024-05-23 12:57:24,111.95060133469703
2024-05-23 12:57:24,110.36054388625965
2024-05-23 12:57:24,109.4762479726429
2024-05-23 12:57:24,109.34372238632994
2024-05-23 12:57:24,109.7764114205631
2024-05-23 12:57:24,110.43582057212477
2024-05-23 12:57:24,110.95875903719428
2024-05-23 12:57:24,111.06322209564749
2024-05-23 12:57:24,110.60354142248401
2024-05-23 12:57:24,109.5765716371373
2024-05-23 12:57:24,108.08888624501914
2024-05-23 12:57:24,106.29913103024194
2024-05-23 12:57:24,104.35679212506084
2024-05-23 12:57:24,102.35813159321141
2024-05-23 12:57:24,100.33794484368282
2024-05-23 12:57:24,98.3086996521509
2024-05-23 12:57:24,96.32535022439058
2024-05-23 12:57:24,94.52163680954561
2024-05-23 12:57:24,93.07736062828067
2024-05-23 12:57:24,92.13038583905036
2024-05-23 12:57:24,91.70392295333045
2024-05-23 12:57:24,91.7213607174306
2024-05-23 12:57:24,92.09912588978881
2024-05-23 12:57:24,92.82433206299658
2024-05-23 12:57:24,93.9455257444709
2024-05-23 12:57:24,95.50022663053994
2024-05-23 12:57:24,97.44803796597996
2024-05-23 12:57:24,99.6444289410912
2024-05-23 12:57:24,101.85229026334827
2024-05-23 12:57:24,103.78299347132898
2024-05-23 12:57:24,105.16191310131258
2024-05-23 12:57:24,105.81116329913597
2024-05-23 12:57:24,105.73366736847963
2024-05-23 12:57:24,105.15597435860855
2024-05-23 12:57:24,104.47115852265237
2024-05-23 12:57:24,104.07289865615013
2024-05-23 12:57:24,104.15802112595496
2024-05-23 12:57:24,104.61207821495873
2024-05-23 12:57:24,105.0519357879294
2024-05-23 12:57:24,105.01221991528766
2024-05-23 12:57:24,104.1782988846936
2024-05-23 12:57:24,102.53719601359008
2024-05-23 12:57:24,100.36910475927421
2024-05-23 12:57:24,98.10458855319214
2024-05-23 12:57:24,96.14361149353935
2024-05-23 12:57:24,94.72550455738786
2024-05-23 12:57:24,93.88785899824484
2024-05-23 12:57:24,93.51118231027621
2024-05-23 12:57:24,93.41986187339603
2024-05-23 12:57:24,93.48831679622029
2024-05-23 12:57:24,93.70122553174414
2024-05-23 12:57:24,94.14302279041561
2024-05-23 12:57:24,94.92683720479917
2024-05-23 12:57:24,96.10500247944566
2024-05-23 12:57:24,97.61974470690316
2024-05-23 12:57:24,99.32887969333714
2024-05-23 12:57:24,101.0735723796626
2024-05-23 12:57:24,102.70803725040214
2024-05-23 12:57:24,104.05781687119016
2024-05-23 12:57:24,104.87349045552106
2024-05-23 12:57:24,104.87369756108926
2024-05-23 12:57:24,103.88500216278578
2024-05-23 12:57:24,101.98915070027253
2024-05-23 12:57:24,99.5740285782047
2024-05-23 12:57:24,97.23747708738074
2024-05-23 12:57:24,95.56519181276254
2024-05-23 12:57:24,94.87598634582427
2024-05-23 12:57:24,95.07268239779667
2024-05-23 12:57:24,95.69571049901197
2024-05-23 12:57:24,96.14646888711775
2024-05-23 12:57:24,95.94584189355093
2024-05-23 12:57:24,94.91017329309926
2024-05-23 12:57:24,93.20060626154661
2024-05-23 12:57:24,91.24798196615603
2024-05-23 12:57:24,89.5858461293931
2024-05-23 12:57:24,88.65764572506997
2024-05-23 12:57:24,88.67170025597362
2024-05-23 12:57:24,89.54995286092215
2024-05-23 12:57:24,90.97523360902042
2024-05-23 12:57:24,92.50495990699322
2024-05-23 12:57:24,93.70635133394603
2024-05-23 12:57:24,94.2825322732231
2024-05-23 12:57:24,94.16598365347662
2024-05-23 12:57:24,93.53811960368158
2024-05-23 12:57:24,92.74484979384096
2024-05-23 12:57:24,92.14237112204655
2024-05-23 12:57:24,91.94760928692382
2024-05-23 12:57:24,92.15323230164294
2024-05-23 12:57:24,92.5475520786113
2024-05-23 12:57:24,92.84467960430757
2024-05-23 12:57:24,92.8570050218526
2024-05-23 12:57:24,92.59411351325521
2024-05-23 12:57:24,92.22024533726045
2024-05-23 12:57:24,91.91783397841284
2024-05-23 12:57:24,91.77696727808406
2024-05-23 12:57:24,91.78902807822072
2024-05-23 12:57:24,91.92049216334615
2024-05-23 12:57:24,92.18678222846474
2024-05-23 12:57:24,92.66617360973552
2024-05-23 12:57:24,93.44231895730636
2024-05-23 12:57:24,94.50963654631668
2024-05-23 12:57:24,95.71039719531724
2024-05-23 12:57:24,96.76698734521074
2024-05-23 12:57:24,97.40712358941822
2024-05-23 12:57:24,97.49756190369389
2024-05-23 12:57:24,97.084114129163
2024-05-23 12:57:24,96.3085160435414
2024-05-23 12:57:24,95.27336142845037
2024-05-23 12:57:24,93.966659953208
2024-05-23 12:57:24,92.3103660183303
2024-05-23 12:57:24,90.3050842511717
2024-05-23 12:57:24,88.16305674197558
2024-05-23 12:57:24,86.31283782843781
2024-05-23 12:57:24,85.25009832238061
2024-05-23 12:57:24,85.32714123026433
2024-05-23 12:57:24,86.60747529930727
2024-05-23 12:57:24,88.84692984107626
2024-05-23 12:57:24,91.58078327170594
2024-05-23 12:57:24,94.26063446146242
2024-05-23 12:57:24,96.39206224355162
2024-05-23 12:57:24,97.6450938832461
2024-05-23 12:57:24,97.92126845544227
2024-05-23 12:57:24,97.35916646318314
2024-05-23 12:57:24,96.26754813819602
2024-05-23 12:57:24,95.01192619222617
2024-05-23 12:57:24,93.91557492761036
2024-05-23 12:57:24,93.22015018195086
2024-05-23 12:57:24,93.09140373297915
2024-05-23 12:57:24,93.60949729221959
2024-05-23 12:57:24,94.70511216604335
2024-05-23 12:57:24,96.08795205567343
2024-05-23 12:57:24,97.27633017695184
2024-05-23 12:57:24,97.78066168004088
2024-05-23 12:57:24,97.34370317914177
2024-05-23 12:57:24,96.05784847547412
2024-05-23 12:57:24,94.2711111410384
2024-05-23 12:57:24,92.35441752813078
2024-05-23 12:57:24,90.48328337365503
2024-05-23 12:57:24,88.55931618555641
2024-05-23 12:57:24,86.3014961206194
2024-05-23 12:57:24,83.43769291587408
2024-05-23 12:57:24,79.88963785645672
2024-05-23 12:57:24,75.87260059557529
2024-05-23 12:57:24,71.87688851216346
2024-05-23 12:57:24,68.53830970629575
2024-05-23 12:57:24,66.44206527883838
2024-05-23 12:57:24,65.92982540257252
2024-05-23 12:57:24,66.98037342426981
2024-05-23 12:57:24,69.21039184344602
2024-05-23 12:57:24,71.99985612121739
2024-05-23 12:57:24,74.69953256724055
2024-05-23 12:57:24,76.84313258311924
2024-05-23 12:57:24,78.27672624489178
2024-05-23 12:57:24,79.14633136829627
2024-05-23 12:57:24,79.7544600874906
2024-05-23 12:57:24,80.36882904082638
2024-05-23 12:57:24,81.08228076780502
2024-05-23 12:57:24,81.7797849636112
2024-05-23 12:57:24,82.21341631289185
2024-05-23 12:57:24,82.14379513477517
2024-05-23 12:57:24,81.47250760927432
2024-05-23 12:57:24,80.28215365346077
2024-05-23 12:57:24,78.75878245234294
2024-05-23 12:57:24,77.07127324821394
2024-05-23 12:57:24,75.31737278271339
2024-05-23 12:57:24,73.56967024878382
2024-05-23 12:57:24,71.95817949046668
2024-05-23 12:57:24,70.70679655047975
2024-05-23 12:57:24,70.08297457507035
2024-05-23 12:57:24,70.27420933192006
2024-05-23 12:57:24,71.26090941203644
2024-05-23 12:57:24,72.78303310935328
2024-05-23 12:57:24,74.44929256040831
2024-05-23 12:57:24,75.93100848103397
2024-05-23 12:57:24,77.11432184657274
2024-05-23 12:57:24,78.12228245043295
2024-05-23 12:57:24,79.2149618909086
2024-05-23 12:57:24,80.63953022570522
2024-05-23 12:57:24,82.50068944946354
2024-05-23 12:57:24,84.6887549342928
2024-05-23 12:57:24,86.88292135897495
2024-05-23 12:57:24,88.6395802088584
2024-05-23 12:57:24,89.54903025353663
2024-05-23 12:57:24,89.3962373259394
2024-05-23 12:57:24,88.23825920218209
2024-05-23 12:57:24,86.35789158759393
2024-05-23 12:57:24,84.13906862501102
2024-05-23 12:57:24,81.95486208340208
2024-05-23 12:57:24,80.12877759192811
2024-05-23 12:57:24,78.95678608969531
2024-05-23 12:57:24,78.72115515265693
2024-05-23 12:57:24,79.63197200876503
2024-05-23 12:57:24,81.70018692203996
2024-05-23 12:57:24,84.62477009136855
2024-05-23 12:57:24,87.79447522417269
2024-05-23 12:57:24,90.44025941246325
2024-05-23 12:57:24,91.87959751112194
2024-05-23 12:57:24,91.74565727009397
2024-05-23 12:57:24,90.11334450924782
2024-05-23 12:57:24,87.48122709906187
2024-05-23 12:57:24,84.61686216952731
2024-05-23 12:57:24,82.31896985801984
2024-05-23 12:57:24,81.17939886779314
2024-05-23 12:57:24,81.42679875270753
2024-05-23 12:57:24,82.9022419070079
2024-05-23 12:57:24,85.16098951883669
2024-05-23 12:57:24,87.6378095270966
2024-05-23 12:57:24,89.80200481524456
2024-05-23 12:57:24,91.26407602543068
2024-05-23 12:57:24,91.8263822610751
2024-05-23 12:57:24,91.48202695503792
2024-05-23 12:57:24,90.37956369850326
2024-05-23 12:57:24,88.7784646020016
2024-05-23 12:57:24,87.00719847076518
2024-05-23 12:57:24,85.41425990284753
2024-05-23 12:57:24,84.30064502597222
2024-05-23 12:57:25,83.84323706562273
2024-05-23 12:57:25,84.03630372777283
2024-05-23 12:57:25,84.68587875613423
2024-05-23 12:57:25,85.49175993771192
2024-05-23 12:57:25,86.20853596417587
2024-05-23 12:57:25,86.79182506382277
2024-05-23 12:57:25,87.4204756014279
2024-05-23 12:57:25,88.39283744871402
2024-05-23 12:57:25,89.99379213767935
2024-05-23 12:57:25,92.40909090525129
2024-05-23 12:57:25,95.69665058269803
2024-05-23 12:57:25,99.80065275460109
2024-05-23 12:57:25,104.58268293013106
2024-05-23 12:57:25,109.82186117559144
2024-05-23 12:57:25,115.16237528269149
2024-05-23 12:57:25,120.06352802558972
2024-05-23 12:57:25,123.84318633661255
2024-05-23 12:57:25,125.84584140168305
2024-05-23 12:57:25,125.65973327450908
2024-05-23 12:57:25,123.2599532874459
2024-05-23 12:57:25,119.01709084657382
2024-05-23 12:57:25,113.60849532314344
2024-05-23 12:57:25,107.89658765246399
2024-05-23 12:57:25,102.798071033664
2024-05-23 12:57:25,99.13305873479973
2024-05-23 12:57:25,97.4500721576715
2024-05-23 12:57:25,97.86301707736995
2024-05-23 12:57:25,99.97794697030673
2024-05-23 12:57:25,102.9852286304349
2024-05-23 12:57:25,105.92681694813896
2024-05-23 12:57:25,108.04592017034102
2024-05-23 12:57:25,109.05321048797448
2024-05-23 12:57:25,109.17143237033132
2024-05-23 12:57:25,108.9513798186418
2024-05-23 12:57:25,108.98435399359408
2024-05-23 12:57:25,109.66269730059543
2024-05-23 12:57:25,111.07113379282245
2024-05-23 12:57:25,113.00924097127282
2024-05-23 12:57:25,115.09693101488138
2024-05-23 12:57:25,116.9077454549681
2024-05-23 12:57:25,118.09285005958782
2024-05-23 12:57:25,118.47011056755261
2024-05-23 12:57:25,118.05870675350086
2024-05-23 12:57:25,117.06392662621674
2024-05-23 12:57:25,115.82942750659647
2024-05-23 12:57:25,114.75059904332254
2024-05-23 12:57:25,114.14800708933359
2024-05-23 12:57:25,114.15971179466042
2024-05-23 12:57:25,114.7285936583242
2024-05-23 12:57:25,115.6849289760696
2024-05-23 12:57:25,116.84712394498102
2024-05-23 12:57:25,118.07328725197374
2024-05-23 12:57:25,119.25532942136911
2024-05-23 12:57:25,120.28550262809564
2024-05-23 12:57:25,121.04346783753707
2024-05-23 12:57:25,121.45703090407329
2024-05-23 12:57:25,121.63856589224815
2024-05-23 12:57:25,121.9810763935998
2024-05-23 12:57:25,123.04143051699805
2024-05-23 12:57:25,125.18867320510225
2024-05-23 12:57:25,128.24396017194314
2024-05-23 12:57:25,131.4078831685863
2024-05-23 12:57:25,133.5758366860613
2024-05-23 12:57:25,133.8688309928697
2024-05-23 12:57:25,132.07507724370012
2024-05-23 12:57:25,128.76609022602483
2024-05-23 12:57:25,125.04132052900036
2024-05-23 12:57:25,122.05267035193387
2024-05-23 12:57:25,120.56127067753864
2024-05-23 12:57:25,120.7318331595387
2024-05-23 12:57:25,122.21607653422768
2024-05-23 12:57:25,124.42099502996129
2024-05-23 12:57:25,126.78970611176258
2024-05-23 12:57:25,128.96723420405297
2024-05-23 12:57:25,130.82339574430347
2024-05-23 12:57:25,132.3710533089732
2024-05-23 12:57:25,133.63847962477436
2024-05-23 12:57:25,134.57228879511638
2024-05-23 12:57:25,135.04686130155005
2024-05-23 12:57:25,134.98549712636918
2024-05-23 12:57:25,134.48595904761459
2024-05-23 12:57:25,133.81369752509266
2024-05-23 12:57:25,133.24613759239935
2024-05-23 12:57:25,132.8998965734909
2024-05-23 12:57:25,132.68076969749714
2024-05-23 12:57:25,132.3745501440557
2024-05-23 12:57:25,131.79694908397403
2024-05-23 12:57:25,130.91527169749014
2024-05-23 12:57:25,129.89309370587412
2024-05-23 12:57:25,129.04254649610687
2024-05-23 12:57:25,128.69747955671787
2024-05-23 12:57:25,129.06088751166763
2024-05-23 12:57:25,130.1144739902429
2024-05-23 12:57:25,131.6553805264208
2024-05-23 12:57:25,133.43414737972813
2024-05-23 12:57:25,135.28554614600307
2024-05-23 12:57:25,137.162678374678
2024-05-23 12:57:25,139.084077036391
2024-05-23 12:57:25,141.06484202776133
2024-05-23 12:57:25,143.0775932645615
2024-05-23 12:57:25,145.03808578866327
2024-05-23 12:57:25,146.79074206810097
2024-05-23 12:57:25,148.08654431604987
2024-05-23 12:57:25,148.58224939350586
2024-05-23 12:57:25,147.91460742356713
2024-05-23 12:57:25,145.8757035576924
2024-05-23 12:57:25,142.6234687154197
2024-05-23 12:57:25,138.76650949483997
2024-05-23 12:57:25,135.1873359832831
2024-05-23 12:57:25,132.65109489991346
2024-05-23 12:57:25,131.43320418576417
2024-05-23 12:57:25,131.2057004326277
2024-05-23 12:57:25,131.2459253799966
2024-05-23 12:57:25,130.82430571913426
2024-05-23 12:57:25,129.54249133750722
2024-05-23 12:57:25,127.46204390743432
2024-05-23 12:57:25,125.00402482305856
2024-05-23 12:57:25,122.71348752399517
2024-05-23 12:57:25,121.02780118376934
2024-05-23 12:57:25,120.15654630808162
2024-05-23 12:57:25,120.08934574816982
2024-05-23 12:57:25,120.6698665913603
2024-05-23 12:57:25,121.66767495477502
2024-05-23 12:57:25,122.81174373129747
2024-05-23 12:57:25,123.79065938980428
2024-05-23 12:57:25,124.2729610187837
2024-05-23 12:57:25,124.00159576228226
2024-05-23 12:57:25,122.93788657137667
2024-05-23 12:57:25,121.35538565616316
2024-05-23 12:57:25,119.79350240153167
2024-05-23 12:57:25,118.85741588777584
2024-05-23 12:57:25,118.94842287718895
2024-05-23 12:57:25,120.07483225544523
2024-05-23 12:57:25,121.85817536926673
2024-05-23 12:57:25,123.72382344217199
2024-05-23 12:57:25,125.15725955546061
2024-05-23 12:57:25,125.89387523906136
2024-05-23 12:57:25,125.97555721896502
2024-05-23 12:57:25,125.6908748606189
2024-05-23 12:57:25,125.45846586878173
2024-05-23 12:57:25,125.69506322909447
2024-05-23 12:57:25,126.6781943905562
2024-05-23 12:57:25,128.43008218211403
2024-05-23 12:57:25,130.68995749820456
2024-05-23 12:57:25,133.01893099987845
2024-05-23 12:57:25,134.98736666973653
2024-05-23 12:57:25,136.3362592712756
2024-05-23 12:57:25,137.04228316936312
2024-05-23 12:57:25,137.2910449930467
2024-05-23 12:57:25,137.40032651767365
2024-05-23 12:57:25,137.72555948740427
2024-05-23 12:57:25,138.56531341617747
2024-05-23 12:57:25,140.08594981185848
2024-05-23 12:57:25,142.27660115891038
2024-05-23 12:57:25,144.936158394353
2024-05-23 12:57:25,147.71444032219347
2024-05-23 12:57:25,150.2311356981628
2024-05-23 12:57:25,152.22133986218356
2024-05-23 12:57:25,153.598581307008
2024-05-23 12:57:25,154.3986907731977
2024-05-23 12:57:25,154.6828702113657
2024-05-23 12:57:25,154.48932725365512
2024-05-23 12:57:25,153.85359142184936
2024-05-23 12:57:25,152.8679930602483
2024-05-23 12:57:25,151.73610551280973
2024-05-23 12:57:25,150.77484102158436
2024-05-23 12:57:25,150.33899470399507
2024-05-23 12:57:25,150.69280573325747
2024-05-23 12:57:25,151.89318916966468
2024-05-23 12:57:25,153.75047290821075
2024-05-23 12:57:25,155.8932383022697
2024-05-23 12:57:25,157.9074325894873
2024-05-23 12:57:25,159.4800318536785
2024-05-23 12:57:25,160.47656796049242
2024-05-23 12:57:25,160.92632157460883
2024-05-23 12:57:25,160.95170483339365
2024-05-23 12:57:25,160.70301908188983
2024-05-23 12:57:25,160.32546685914303
2024-05-23 12:57:25,159.94226782018075
2024-05-23 12:57:25,159.6356647412116
2024-05-23 12:57:25,159.4273853061938
2024-05-23 12:57:25,159.2697415606487
2024-05-23 12:57:25,159.05773048746792
2024-05-23 12:57:25,158.66192543509453
2024-05-23 12:57:25,157.97023554284817
2024-05-23 12:57:25,156.93291632748264
2024-05-23 12:57:25,155.61343210025123
2024-05-23 12:57:25,154.22633052931178
2024-05-23 12:57:25,153.1201231723954
2024-05-23 12:57:25,152.6840816358281
2024-05-23 12:57:25,153.20210997948448
2024-05-23 12:57:25,154.7105577368484
2024-05-23 12:57:25,156.933782905114
2024-05-23 12:57:25,159.3476738027784
2024-05-23 12:57:25,161.34798621216177
2024-05-23 12:57:25,162.43486895970344
2024-05-23 12:57:25,162.3279087084437
2024-05-23 12:57:25,160.98277092811082
2024-05-23 12:57:25,158.53904624966833
2024-05-23 12:57:25,155.26165383587238
2024-05-23 12:57:25,151.5339413499757
2024-05-23 12:57:25,147.90288814943068
2024-05-23 12:57:25,145.077917181919
2024-05-23 12:57:25,143.7569995460763
2024-05-23 12:57:25,144.30066509869022
2024-05-23 12:57:25,146.47029754221418
2024-05-23 12:57:25,149.44906163273777
2024-05-23 12:57:25,152.15185114260046
2024-05-23 12:57:25,153.63573474989164
2024-05-23 12:57:25,153.40597610633185
2024-05-23 12:57:25,151.50441864350188
2024-05-23 12:57:25,148.37367534435046
2024-05-23 12:57:25,144.60282247840647
2024-05-23 12:57:25,140.71421446899436
2024-05-23 12:57:25,137.0722281163561
2024-05-23 12:57:25,133.87051881182578
2024-05-23 12:57:25,131.13926761045042
2024-05-23 12:57:25,128.78839493430232
2024-05-23 12:57:25,126.71353453156834
2024-05-23 12:57:25,124.91076913943304
2024-05-23 12:57:25,123.50390866653737
2024-05-23 12:57:25,122.65872171642717
2024-05-23 12:57:25,122.45824826130524
2024-05-23 12:57:25,122.8313418585096
2024-05-23 12:57:25,123.56174926989388
2024-05-23 12:57:25,124.33439967592084
2024-05-23 12:57:25,124.76601402944095
2024-05-23 12:57:25,124.42764415833206
2024-05-23 12:57:25,122.9266297103924
2024-05-23 12:57:25,120.08032745614246
2024-05-23 12:57:25,116.0959213067711
2024-05-23 12:57:25,111.60804758398585
2024-05-23 12:57:25,107.50637806692785
2024-05-23 12:57:25,104.62526808253223
2024-05-23 12:57:25,103.43984311730011
2024-05-23 12:57:25,103.89739906405362
2024-05-23 12:57:25,105.4520452155197
2024-05-23 12:57:25,107.28040684206495
2024-05-23 12:57:25,108.57350523023904
2024-05-23 12:57:25,108.789746499076
2024-05-23 12:57:25,107.80053878941678
2024-05-23 12:57:25,105.89413792450841
2024-05-23 12:57:25,103.62955588359532
2024-05-23 12:57:25,101.59442793996065
2024-05-23 12:57:25,100.18615652077904
2024-05-23 12:57:25,99.52321294937155
2024-05-23 12:57:25,99.49841372552103
2024-05-23 12:57:25,99.89918183428156
2024-05-23 12:57:26,100.51675441694641
2024-05-23 12:57:26,101.21692483124595
2024-05-23 12:57:26,101.9700205915226
2024-05-23 12:57:26,102.8325577279206
2024-05-23 12:57:26,103.88070997335926
2024-05-23 12:57:26,105.12058133498225
2024-05-23 12:57:26,106.42455983318631
2024-05-23 12:57:26,107.54478286045573
2024-05-23 12:57:26,108.21719297048023
2024-05-23 12:57:26,108.3103412716073
2024-05-23 12:57:26,107.93127619484014
2024-05-23 12:57:26,107.41140453929691
2024-05-23 12:57:26,107.16544647400143
2024-05-23 12:57:26,107.50543926588881
2024-05-23 12:57:26,108.52627071102188
2024-05-23 12:57:26,110.12196888601926
2024-05-23 12:57:26,112.09125439004592
2024-05-23 12:57:26,114.23615529740837
2024-05-23 12:57:26,116.39138008147437
2024-05-23 12:57:26,118.39928498844422
2024-05-23 12:57:26,120.08845381451609
2024-05-23 12:57:26,121.29868799535949
2024-05-23 12:57:26,121.94210599572232
2024-05-23 12:57:26,122.03860104758067
2024-05-23 12:57:26,121.67487953173357
2024-05-23 12:57:26,120.91976201298995
2024-05-23 12:57:26,119.78455126869262
2024-05-23 12:57:26,118.26373803469964
2024-05-23 12:57:26,116.40301637118779
2024-05-23 12:57:26,114.3302190351297
2024-05-23 12:57:26,112.23269364300818
2024-05-23 12:57:26,110.29816952202772
2024-05-23 12:57:26,108.64500943035038
2024-05-23 12:57:26,107.27368880342392
2024-05-23 12:57:26,106.07023780261547
2024-05-23 12:57:26,104.87231765961664
2024-05-23 12:57:26,103.57272245149989
2024-05-23 12:57:26,102.20368269750855
2024-05-23 12:57:26,100.95131904983865
2024-05-23 12:57:26,100.09509347566556
2024-05-23 12:57:26,99.92575802302784
2024-05-23 12:57:26,100.73265887318821
2024-05-23 12:57:26,102.87868596590263
2024-05-23 12:57:26,106.80382783803532
2024-05-23 12:57:26,112.78277208310395
2024-05-23 12:57:26,120.54644583089777
2024-05-23 12:57:26,129.11161559645913
2024-05-23 12:57:26,137.0076764585449
2024-05-23 12:57:26,142.75368161396
2024-05-23 12:57:26,145.3176244015168
2024-05-23 12:57:26,144.4064136572316
2024-05-23 12:57:26,140.53642603300565
2024-05-23 12:57:26,134.83374067647753
2024-05-23 12:57:26,128.57691558740368
2024-05-23 12:57:26,122.69403653298914
2024-05-23 12:57:26,117.5275840402802
2024-05-23 12:57:26,112.98606290145177
2024-05-23 12:57:26,108.88432273765143
2024-05-23 12:57:26,105.17167498529562
2024-05-23 12:57:26,101.93207184044445
2024-05-23 12:57:26,99.26885684888332
2024-05-23 12:57:26,97.23033067384014
2024-05-23 12:57:26,95.81888561635854
2024-05-23 12:57:26,95.0228872486669
2024-05-23 12:57:26,94.81280748548224
2024-05-23 12:57:26,95.11272542144324
2024-05-23 12:57:26,95.79465637608287
2024-05-23 12:57:26,96.69881669730123
2024-05-23 12:57:26,97.6331821133079
2024-05-23 12:57:26,98.35000476794875
2024-05-23 12:57:26,98.580898647713
2024-05-23 12:57:26,98.18346014731392
2024-05-23 12:57:26,97.303751262459
2024-05-23 12:57:26,96.38334734143038
2024-05-23 12:57:26,95.96853371970307
2024-05-23 12:57:26,96.46169057150748
2024-05-23 12:57:26,97.97579204005496
2024-05-23 12:57:26,100.33908931368802
2024-05-23 12:57:26,103.2010532475532
2024-05-23 12:57:26,106.1582332733599
2024-05-23 12:57:26,108.82945067127501
2024-05-23 12:57:26,110.86364082804427
2024-05-23 12:57:26,111.93224430202135
2024-05-23 12:57:26,111.77969845554563
2024-05-23 12:57:26,110.34850063975821
2024-05-23 12:57:26,107.89637243610994
2024-05-23 12:57:26,104.9875099466622
2024-05-23 12:57:26,102.3246825712782
2024-05-23 12:57:26,100.50841948147057
2024-05-23 12:57:26,99.85313653985436
2024-05-23 12:57:26,100.34301584036285
2024-05-23 12:57:26,101.71913286280017
2024-05-23 12:57:26,103.61382194774859
2024-05-23 12:57:26,105.65113034480028
2024-05-23 12:57:26,107.51315951318138
2024-05-23 12:57:26,109.0335968192536
2024-05-23 12:57:26,110.33197970026913
2024-05-23 12:57:26,111.87570120706468
2024-05-23 12:57:26,114.31217364449437
2024-05-23 12:57:26,118.07437572789503
2024-05-23 12:57:26,122.99613141863225
2024-05-23 12:57:26,128.22317580172162
2024-05-23 12:57:26,132.51939921395729
2024-05-23 12:57:26,134.80894006121903
2024-05-23 12:57:26,134.6442843529413
2024-05-23 12:57:26,132.33392466218842
2024-05-23 12:57:26,128.67685264048887
2024-05-23 12:57:26,124.50348729588961
2024-05-23 12:57:26,120.33197069365808
2024-05-23 12:57:26,116.32420743423252
2024-05-23 12:57:26,112.47393582353335
2024-05-23 12:57:26,108.81031716983492
2024-05-23 12:57:26,105.4710758115768
2024-05-23 12:57:26,102.66506953789911
2024-05-23 12:57:26,100.61714280862161
2024-05-23 12:57:26,99.53856915654181
2024-05-23 12:57:26,99.59986780638685
2024-05-23 12:57:26,100.8754700134043
2024-05-23 12:57:26,103.2694416164887
2024-05-23 12:57:26,106.46403862365189
2024-05-23 12:57:26,109.92658920784844
2024-05-23 12:57:26,112.99064951361365
2024-05-23 12:57:26,115.01354694580685
2024-05-23 12:57:26,115.57903064094744
2024-05-23 12:57:26,114.66792234669965
2024-05-23 12:57:26,112.70948740556011
2024-05-23 12:57:26,110.46671526658568
2024-05-23 12:57:26,108.77856109564212
2024-05-23 12:57:26,108.2617668982589
2024-05-23 12:57:26,109.11947146283974
2024-05-23 12:57:26,111.1453695040661
2024-05-23 12:57:26,113.87706438929771
2024-05-23 12:57:26,116.77356576057194
2024-05-23 12:57:26,119.33540868609276
2024-05-23 12:57:26,121.17213268251908
2024-05-23 12:57:26,122.05093536626532
2024-05-23 12:57:26,121.9323857544839
2024-05-23 12:57:26,120.97393788020806
2024-05-23 12:57:26,119.48441136369914
2024-05-23 12:57:26,117.82943186307469
2024-05-23 12:57:26,116.31357785931885
2024-05-23 12:57:26,115.09490684407156
2024-05-23 12:57:26,114.18170602427391
2024-05-23 12:57:26,113.50363591635126
2024-05-23 12:57:26,113.00535196391904
2024-05-23 12:57:26,112.72030578991338
2024-05-23 12:57:26,112.79655953977387
2024-05-23 12:57:26,113.44288410558944
2024-05-23 12:57:26,114.79621572092725
2024-05-23 12:57:26,116.78075527340451
2024-05-23 12:57:26,119.04430052572776
2024-05-23 12:57:26,121.00610822878772
2024-05-23 12:57:26,122.01040025135649
2024-05-23 12:57:26,121.55235910214361
2024-05-23 12:57:26,119.49474638904995
2024-05-23 12:57:26,116.16988559144998
2024-05-23 12:57:26,112.30782398418539
2024-05-23 12:57:26,108.80989544954386
2024-05-23 12:57:26,106.45132847466705
2024-05-23 12:57:26,105.63112841895503
2024-05-23 12:57:26,106.27468777169742
2024-05-23 12:57:26,107.92970268583586
