Timestamp,Channel_1
23/05/2024 12:16,115.1696122
23/05/2024 12:16,109.684552
23/05/2024 12:16,105.861321
23/05/2024 12:16,104.8471486
23/05/2024 12:16,106.5771107
23/05/2024 12:16,110.1212261
23/05/2024 12:16,114.3074252
23/05/2024 12:16,118.0987264
23/05/2024 12:16,120.6227609
23/05/2024 12:16,121.1088365
23/05/2024 12:16,119.111475
23/05/2024 12:16,114.9129116
23/05/2024 12:16,109.5473955
23/05/2024 12:16,104.2525309
23/05/2024 12:16,99.90707069
23/05/2024 12:16,97.01213629
23/05/2024 12:16,95.98534367
23/05/2024 12:16,97.15158079
23/05/2024 12:16,100.2807949
23/05/2024 12:16,104.1495469
23/05/2024 12:16,106.7995336
23/05/2024 12:16,106.5731965
23/05/2024 12:16,103.1666234
23/05/2024 12:16,97.83461827
23/05/2024 12:16,92.64676399
23/05/2024 12:16,89.39011624
23/05/2024 12:16,88.7552087
23/05/2024 12:16,90.21030708
23/05/2024 12:16,92.59757011
23/05/2024 12:16,94.96480995
23/05/2024 12:16,97.05276817
23/05/2024 12:16,99.20648956
23/05/2024 12:16,101.8322638
23/05/2024 12:16,104.7388335
23/05/2024 12:16,106.8611745
23/05/2024 12:16,106.7521932
23/05/2024 12:16,103.5975392
23/05/2024 12:16,97.95772519
23/05/2024 12:16,91.67663786
23/05/2024 12:16,87.14014806
23/05/2024 12:16,86.44209567
23/05/2024 12:16,90.68013227
23/05/2024 12:16,99.35940918
23/05/2024 12:16,110.2237438
23/05/2024 12:16,120.0014123
23/05/2024 12:16,125.8188259
23/05/2024 12:16,126.303068
23/05/2024 12:16,121.8373838
23/05/2024 12:16,114.1963059
23/05/2024 12:16,105.8187863
23/05/2024 12:16,98.96407273
23/05/2024 12:16,95.0959926
23/05/2024 12:16,94.62025242
23/05/2024 12:16,96.89606253
23/05/2024 12:16,100.5634354
23/05/2024 12:16,104.2069252
23/05/2024 12:16,107.0212141
23/05/2024 12:16,109.0666218
23/05/2024 12:16,110.9719474
23/05/2024 12:16,113.2120265
23/05/2024 12:16,115.5064128
23/05/2024 12:16,116.9103665
23/05/2024 12:16,116.4778356
23/05/2024 12:16,113.8450893
23/05/2024 12:16,109.3751309
23/05/2024 12:16,104.0044063
23/05/2024 12:16,99.01159427
23/05/2024 12:16,95.80103015
23/05/2024 12:16,95.62691863
23/05/2024 12:16,99.06529829
23/05/2024 12:16,105.423563
23/05/2024 12:16,112.7443886
23/05/2024 12:16,118.7385695
23/05/2024 12:16,122.0165483
23/05/2024 12:16,122.6145615
23/05/2024 12:16,121.4919213
23/05/2024 12:16,119.5564675
23/05/2024 12:16,117.0359459
23/05/2024 12:16,113.5780259
23/05/2024 12:16,108.812899
23/05/2024 12:16,102.8418231
23/05/2024 12:16,96.30712761
23/05/2024 12:16,90.11157776
23/05/2024 12:16,85.11978881
23/05/2024 12:16,82.0777105
23/05/2024 12:16,81.59925124
23/05/2024 12:16,83.91742805
23/05/2024 12:16,88.4601003
23/05/2024 12:16,93.68783411
23/05/2024 12:16,97.52246088
23/05/2024 12:16,98.28104831
23/05/2024 12:16,95.58656486
23/05/2024 12:16,90.61990118
23/05/2024 12:16,85.53191039
23/05/2024 12:16,82.41797375
23/05/2024 12:16,82.32297255
23/05/2024 12:16,84.66326642
23/05/2024 12:16,87.59761023
23/05/2024 12:16,89.36023101
23/05/2024 12:16,89.4657263
23/05/2024 12:16,88.72607004
23/05/2024 12:16,88.30755641
23/05/2024 12:16,88.8459683
23/05/2024 12:16,90.18110912
23/05/2024 12:16,91.60980662
23/05/2024 12:16,92.45358689
23/05/2024 12:16,92.64483299
23/05/2024 12:16,92.83160099
23/05/2024 12:16,93.7510956
23/05/2024 12:16,95.31217748
23/05/2024 12:16,96.27029885
23/05/2024 12:16,94.97258663
23/05/2024 12:16,90.71648753
23/05/2024 12:16,84.63146111
23/05/2024 12:16,79.28634891
23/05/2024 12:16,77.21889573
23/05/2024 12:16,79.36136072
23/05/2024 12:16,84.42699861
23/05/2024 12:16,89.75241114
23/05/2024 12:16,93.0792562
23/05/2024 12:16,93.96135423
23/05/2024 12:16,93.72489439
23/05/2024 12:16,94.18573912
23/05/2024 12:16,96.35363124
23/05/2024 12:16,100.0599828
23/05/2024 12:16,104.4318445
23/05/2024 12:16,108.5020642
23/05/2024 12:16,111.4429728
23/05/2024 12:16,112.4901231
23/05/2024 12:16,111.0065377
23/05/2024 12:16,106.9607237
23/05/2024 12:16,101.4487226
23/05/2024 12:16,96.52110212
23/05/2024 12:16,94.07086786
23/05/2024 12:16,94.55131184
23/05/2024 12:16,96.80645478
23/05/2024 12:16,99.30221395
23/05/2024 12:16,101.5090182
23/05/2024 12:16,104.0879899
23/05/2024 12:16,107.8928182
23/05/2024 12:16,112.789083
23/05/2024 12:16,117.242024
23/05/2024 12:16,119.1776119
23/05/2024 12:16,117.6435728
23/05/2024 12:16,113.7570003
23/05/2024 12:16,109.9093118
23/05/2024 12:16,107.8824434
23/05/2024 12:16,107.5140822
23/05/2024 12:16,106.9552906
23/05/2024 12:16,104.2408545
23/05/2024 12:16,98.94809221
23/05/2024 12:16,92.71721485
23/05/2024 12:16,88.33405332
23/05/2024 12:16,88.14564373
23/05/2024 12:16,92.78910224
23/05/2024 12:16,100.9022225
23/05/2024 12:16,109.8340068
23/05/2024 12:16,116.7763067
23/05/2024 12:16,119.600278
23/05/2024 12:16,117.143227
23/05/2024 12:16,109.5834847
23/05/2024 12:16,99.61521157
23/05/2024 12:16,93.09046462
23/05/2024 12:16,96.48482022
23/05/2024 12:16,111.7880906
23/05/2024 12:16,133.7920399
23/05/2024 12:16,153.0348656
23/05/2024 12:16,161.9357234
23/05/2024 12:16,158.8215941
23/05/2024 12:16,147.3417385
23/05/2024 12:16,133.331676
23/05/2024 12:16,122.2277926
23/05/2024 12:16,117.6725234
23/05/2024 12:16,120.4623471
23/05/2024 12:16,128.0871104
23/05/2024 12:16,135.9757988
23/05/2024 12:16,140.2136649
23/05/2024 12:16,139.7072639
23/05/2024 12:16,136.1029404
23/05/2024 12:16,131.9560088
23/05/2024 12:16,129.157758
23/05/2024 12:16,128.663999
23/05/2024 12:16,130.627553
23/05/2024 12:16,134.0513249
23/05/2024 12:16,136.7398918
23/05/2024 12:16,136.6092334
23/05/2024 12:16,133.5746188
23/05/2024 12:16,129.945701
23/05/2024 12:16,128.4690797
23/05/2024 12:16,129.6945986
23/05/2024 12:16,131.3724961
23/05/2024 12:16,130.5697832
23/05/2024 12:16,126.2697472
23/05/2024 12:16,119.9407306
23/05/2024 12:16,113.9224106
23/05/2024 12:16,109.5479277
23/05/2024 12:16,106.7296816
23/05/2024 12:16,104.9871468
23/05/2024 12:16,104.5205579
23/05/2024 12:16,106.1353448
23/05/2024 12:16,110.1882977
23/05/2024 12:16,115.7482159
23/05/2024 12:16,120.8524509
23/05/2024 12:16,123.7248055
23/05/2024 12:16,123.9821489
23/05/2024 12:16,122.8124082
23/05/2024 12:16,121.9404415
23/05/2024 12:16,122.2860385
23/05/2024 12:16,123.4735883
23/05/2024 12:16,124.5043405
23/05/2024 12:16,124.8517913
23/05/2024 12:16,124.9270282
23/05/2024 12:16,125.4955686
23/05/2024 12:16,126.6901269
23/05/2024 12:16,127.6904189
23/05/2024 12:16,127.4505606
23/05/2024 12:16,125.711187
23/05/2024 12:16,123.2401986
23/05/2024 12:16,121.1148677
23/05/2024 12:16,119.7731088
23/05/2024 12:16,118.647734
23/05/2024 12:16,116.6592899
23/05/2024 12:16,113.2051972
23/05/2024 12:16,108.9055498
23/05/2024 12:16,105.4337878
23/05/2024 12:16,104.4323819
23/05/2024 12:16,106.3296706
23/05/2024 12:16,110.0290814
23/05/2024 12:16,113.6781108
23/05/2024 12:16,115.8395164
23/05/2024 12:16,116.2498382
23/05/2024 12:16,115.8055924
23/05/2024 12:16,115.8793632
23/05/2024 12:16,117.3868678
23/05/2024 12:16,120.1870392
23/05/2024 12:16,123.3052945
23/05/2024 12:16,125.9092763
23/05/2024 12:16,128.1588179
23/05/2024 12:16,130.923697
23/05/2024 12:16,134.5025055
23/05/2024 12:16,137.7465167
23/05/2024 12:16,138.6302658
23/05/2024 12:16,135.7416508
23/05/2024 12:16,129.348699
23/05/2024 12:16,121.2855338
23/05/2024 12:16,113.9147204
23/05/2024 12:16,108.9165951
23/05/2024 12:16,106.5869126
23/05/2024 12:16,106.1132179
23/05/2024 12:16,106.5898308
23/05/2024 12:16,107.797361
23/05/2024 12:16,110.0606802
23/05/2024 12:16,113.5521487
23/05/2024 12:16,117.8729046
23/05/2024 12:16,122.2357268
23/05/2024 12:16,125.967385
23/05/2024 12:16,128.8267289
23/05/2024 12:16,130.8692607
23/05/2024 12:16,132.1741228
23/05/2024 12:16,132.8042101
23/05/2024 12:16,132.8699538
23/05/2024 12:16,132.4712344
23/05/2024 12:16,131.6323248
23/05/2024 12:16,130.3906702
23/05/2024 12:16,128.9541286
23/05/2024 12:16,127.7855998
23/05/2024 12:16,127.444232
23/05/2024 12:16,128.0974536
23/05/2024 12:16,129.1094561
23/05/2024 12:16,129.2799737
23/05/2024 12:16,127.7101671
23/05/2024 12:16,124.5824399
23/05/2024 12:16,121.1690833
23/05/2024 12:16,119.0221624
23/05/2024 12:16,118.9438435
23/05/2024 12:16,120.4985785
23/05/2024 12:16,122.3437468
23/05/2024 12:16,123.0643027
23/05/2024 12:16,122.0435512
23/05/2024 12:16,119.8490496
23/05/2024 12:16,117.8111234
23/05/2024 12:16,117.1257621
23/05/2024 12:16,118.1535038
23/05/2024 12:16,120.1619225
23/05/2024 12:16,121.4810451
23/05/2024 12:16,120.2902565
23/05/2024 12:16,115.8953059
23/05/2024 12:16,109.5086494
23/05/2024 12:16,103.699368
23/05/2024 12:16,100.8109714
23/05/2024 12:16,101.5371629
23/05/2024 12:16,104.6564189
23/05/2024 12:16,107.988131
23/05/2024 12:16,109.7733635
23/05/2024 12:16,109.5035064
23/05/2024 12:16,107.7948029
23/05/2024 12:16,105.6955548
23/05/2024 12:16,104.0310642
23/05/2024 12:16,103.2121913
23/05/2024 12:16,103.4752
23/05/2024 12:16,105.0362148
23/05/2024 12:16,107.7828241
23/05/2024 12:16,110.8940912
23/05/2024 12:16,113.0439509
23/05/2024 12:16,113.1218672
23/05/2024 12:16,110.8639827
23/05/2024 12:16,107.0202157
23/05/2024 12:16,103.0386629
23/05/2024 12:16,100.4667657
23/05/2024 12:16,100.313545
23/05/2024 12:16,102.6036147
23/05/2024 12:16,106.3547948
23/05/2024 12:16,110.0934906
23/05/2024 12:16,112.6536456
23/05/2024 12:16,113.7405981
23/05/2024 12:16,113.8952346
23/05/2024 12:16,113.9218051
23/05/2024 12:16,114.2080052
23/05/2024 12:16,114.465193
23/05/2024 12:16,114.0412082
23/05/2024 12:16,112.4484547
23/05/2024 12:16,109.6417458
23/05/2024 12:16,105.9698717
23/05/2024 12:16,102.0843002
23/05/2024 12:16,98.96484109
23/05/2024 12:16,97.88036027
23/05/2024 12:16,99.95091928
23/05/2024 12:16,105.2764438
23/05/2024 12:16,112.3207454
23/05/2024 12:16,118.4214459
23/05/2024 12:16,121.3353671
23/05/2024 12:16,120.7362367
23/05/2024 12:16,118.6426417
23/05/2024 12:16,118.2288616
23/05/2024 12:16,121.3301496
23/05/2024 12:16,126.5503433
23/05/2024 12:16,130.0476319
23/05/2024 12:16,128.5099299
23/05/2024 12:16,121.6206988
23/05/2024 12:16,112.1101491
23/05/2024 12:16,103.79536
23/05/2024 12:16,99.27314355
23/05/2024 12:16,98.75753429
23/05/2024 12:16,100.6211963
23/05/2024 12:16,103.0251812
23/05/2024 12:16,105.2383376
23/05/2024 12:16,107.6028176
23/05/2024 12:16,110.3707459
23/05/2024 12:16,112.7031682
23/05/2024 12:16,112.8550105
23/05/2024 12:16,109.4136264
23/05/2024 12:16,102.5517398
23/05/2024 12:16,94.30083287
23/05/2024 12:16,87.61181944
23/05/2024 12:16,84.78031576
23/05/2024 12:16,86.27015154
23/05/2024 12:16,90.69841212
23/05/2024 12:16,95.79299668
23/05/2024 12:16,99.51936175
23/05/2024 12:16,100.796389
23/05/2024 12:16,99.73742295
23/05/2024 12:16,97.52128113
23/05/2024 12:16,95.96929092
23/05/2024 12:16,96.90366749
23/05/2024 12:16,101.3313282
23/05/2024 12:16,108.6364838
23/05/2024 12:16,116.310515
23/05/2024 12:16,120.816397
23/05/2024 12:16,119.5158385
23/05/2024 12:16,112.4880919
23/05/2024 12:16,102.759778
23/05/2024 12:16,94.57079855
23/05/2024 12:16,90.92433376
23/05/2024 12:16,92.23382117
23/05/2024 12:16,96.72817986
23/05/2024 12:16,101.850423
23/05/2024 12:16,105.5469368
23/05/2024 12:16,106.8676819
23/05/2024 12:16,105.9180034
23/05/2024 12:16,103.5417126
23/05/2024 12:16,101.0729153
23/05/2024 12:16,100.0988986
23/05/2024 12:16,101.8361184
23/05/2024 12:16,106.080289
23/05/2024 12:16,110.6001831
23/05/2024 12:16,112.1473408
23/05/2024 12:16,108.9155543
23/05/2024 12:16,102.3922435
23/05/2024 12:16,96.62010113
23/05/2024 12:16,95.29614454
23/05/2024 12:16,99.22433857
23/05/2024 12:16,106.0979085
23/05/2024 12:16,112.3602941
23/05/2024 12:16,115.558217
23/05/2024 12:16,115.570276
23/05/2024 12:16,113.9749002
23/05/2024 12:16,112.2966105
23/05/2024 12:16,110.7894323
23/05/2024 12:16,108.7471845
23/05/2024 12:16,105.7616265
23/05/2024 12:16,102.5956409
23/05/2024 12:16,100.8358835
23/05/2024 12:16,101.6335386
23/05/2024 12:16,104.7357644
23/05/2024 12:16,108.6063271
23/05/2024 12:16,111.2994107
23/05/2024 12:16,111.3908739
23/05/2024 12:16,108.6666986
23/05/2024 12:16,104.3513304
23/05/2024 12:16,100.5249257
23/05/2024 12:16,98.91126902
23/05/2024 12:16,99.88661084
23/05/2024 12:16,102.4025468
23/05/2024 12:16,104.8528616
23/05/2024 12:16,106.3061381
23/05/2024 12:16,107.2105119
23/05/2024 12:16,108.9402084
23/05/2024 12:16,112.5299404
23/05/2024 12:16,117.7326994
23/05/2024 12:16,123.1622225
23/05/2024 12:16,127.2807246
23/05/2024 12:16,129.3695136
23/05/2024 12:16,129.6727676
23/05/2024 12:16,128.7011437
23/05/2024 12:16,126.5774248
23/05/2024 12:16,123.201099
23/05/2024 12:16,118.9637626
23/05/2024 12:16,115.064013
23/05/2024 12:16,112.8681163
23/05/2024 12:16,112.7760903
23/05/2024 12:16,113.7093555
23/05/2024 12:16,113.7670518
23/05/2024 12:16,111.4797927
23/05/2024 12:16,106.7914468
23/05/2024 12:16,101.2012232
23/05/2024 12:16,96.87688222
23/05/2024 12:16,95.22601091
23/05/2024 12:16,96.06192839
23/05/2024 12:16,98.07398432
23/05/2024 12:16,99.99352895
23/05/2024 12:16,101.2685744
23/05/2024 12:16,101.8822418
23/05/2024 12:16,101.8590311
23/05/2024 12:16,101.0765632
23/05/2024 12:16,99.50380678
23/05/2024 12:16,97.3115179
23/05/2024 12:16,94.6739507
23/05/2024 12:16,91.57244944
23/05/2024 12:16,88.09070256
23/05/2024 12:16,84.9553717
23/05/2024 12:16,83.53902002
23/05/2024 12:16,85.05192939
23/05/2024 12:16,89.54369996
23/05/2024 12:16,95.60161267
23/05/2024 12:16,101.0175865
23/05/2024 12:16,103.960923
23/05/2024 12:16,103.9503133
23/05/2024 12:16,102.0792797
23/05/2024 12:16,100.3266037
23/05/2024 12:16,100.3576951
23/05/2024 12:16,102.653093
23/05/2024 12:16,106.4856692
23/05/2024 12:16,110.4890966
23/05/2024 12:16,113.2492651
23/05/2024 12:16,113.7218518
23/05/2024 12:16,111.6498516
23/05/2024 12:16,107.8914161
23/05/2024 12:16,104.2102444
23/05/2024 12:16,102.423089
23/05/2024 12:16,103.4404284
23/05/2024 12:16,106.8291623
23/05/2024 12:16,111.1115479
23/05/2024 12:16,114.6184413
23/05/2024 12:16,116.498056
23/05/2024 12:16,117.253909
23/05/2024 12:16,118.353556
23/05/2024 12:16,121.2538839
23/05/2024 12:16,126.6286584
23/05/2024 12:16,133.9409376
23/05/2024 12:16,141.1577831
23/05/2024 12:16,145.175083
23/05/2024 12:16,143.4514808
23/05/2024 12:16,135.8163914
23/05/2024 12:16,124.8654906
23/05/2024 12:16,114.615684
23/05/2024 12:16,108.4348018
23/05/2024 12:16,107.5006785
23/05/2024 12:16,110.5421771
23/05/2024 12:16,114.8713276
23/05/2024 12:16,117.97145
23/05/2024 12:16,118.6224383
23/05/2024 12:16,116.9942846
23/05/2024 12:16,113.9956198
23/05/2024 12:16,110.6301869
23/05/2024 12:16,107.7812261
23/05/2024 12:16,106.2165899
23/05/2024 12:16,106.3795343
23/05/2024 12:16,107.9248652
23/05/2024 12:16,109.6582093
23/05/2024 12:16,110.3638363
23/05/2024 12:16,109.9238178
23/05/2024 12:16,109.5748678
23/05/2024 12:16,110.9321328
23/05/2024 12:16,114.6426245
23/05/2024 12:16,119.8392901
23/05/2024 12:16,124.7385306
23/05/2024 12:16,127.7246693
23/05/2024 12:16,128.1044277
23/05/2024 12:16,126.2950018
23/05/2024 12:16,123.5441713
23/05/2024 12:16,121.3459675
23/05/2024 12:16,120.7784832
23/05/2024 12:16,122.027023
23/05/2024 12:16,124.3055131
23/05/2024 12:16,126.2826206
23/05/2024 12:16,126.8898452
23/05/2024 12:16,126.0284908
23/05/2024 12:16,124.6089997
23/05/2024 12:16,123.8492448
23/05/2024 12:16,124.3004861
23/05/2024 12:16,125.3261672
23/05/2024 12:16,125.5916582
23/05/2024 12:16,124.2883257
23/05/2024 12:16,121.882896
23/05/2024 12:16,119.5689616
23/05/2024 12:16,118.1319707
23/05/2024 12:16,117.4450455
23/05/2024 12:16,116.8073923
23/05/2024 12:16,115.662313
23/05/2024 12:16,114.2314682
23/05/2024 12:16,113.5923896
23/05/2024 12:16,114.9245193
23/05/2024 12:16,118.4617784
23/05/2024 12:16,123.1981888
23/05/2024 12:16,127.6484434
23/05/2024 12:16,130.8777703
23/05/2024 12:16,132.9310982
23/05/2024 12:16,134.5072317
23/05/2024 12:16,136.3003412
23/05/2024 12:16,138.3586058
23/05/2024 12:16,139.7534936
23/05/2024 12:16,138.9936991
23/05/2024 12:16,135.2218885
23/05/2024 12:16,129.233809
23/05/2024 12:16,123.1757879
23/05/2024 12:16,119.1158941
23/05/2024 12:16,117.854211
23/05/2024 12:16,118.7950934
23/05/2024 12:16,120.5807619
23/05/2024 12:16,121.8599022
23/05/2024 12:16,121.8331741
23/05/2024 12:16,120.4767528
23/05/2024 12:16,118.4927736
23/05/2024 12:16,116.9890962
23/05/2024 12:16,116.8429815
23/05/2024 12:16,118.1107878
23/05/2024 12:16,120.0636317
23/05/2024 12:16,121.7896256
23/05/2024 12:16,122.7614948
23/05/2024 12:16,123.0603816
23/05/2024 12:16,123.3329623
23/05/2024 12:16,124.4764329
23/05/2024 12:16,127.0871053
23/05/2024 12:16,131.0810599
23/05/2024 12:16,135.8011056
23/05/2024 12:16,140.371685
23/05/2024 12:16,143.8844895
23/05/2024 12:16,145.4285323
23/05/2024 12:16,144.3637105
23/05/2024 12:16,140.9079483
23/05/2024 12:16,136.4556142
23/05/2024 12:16,133.0858249
23/05/2024 12:16,132.5329109
23/05/2024 12:16,135.2863756
23/05/2024 12:16,140.1984583
23/05/2024 12:16,144.8407446
23/05/2024 12:16,146.6390122
23/05/2024 12:16,144.1996949
23/05/2024 12:16,138.0655944
23/05/2024 12:16,130.5120688
23/05/2024 12:16,124.3555248
23/05/2024 12:16,121.3072905
23/05/2024 12:16,121.0943702
23/05/2024 12:16,122.2032869
23/05/2024 12:16,123.4949934
23/05/2024 12:16,125.0209129
23/05/2024 12:16,127.4134694
23/05/2024 12:16,130.7599407
23/05/2024 12:16,134.2258361
23/05/2024 12:16,136.6923063
23/05/2024 12:16,137.6676621
23/05/2024 12:16,137.6328447
23/05/2024 12:16,137.6300539
23/05/2024 12:16,138.5404706
23/05/2024 12:16,140.5677331
23/05/2024 12:16,143.1653434
23/05/2024 12:16,145.3225895
23/05/2024 12:16,145.9327892
23/05/2024 12:16,144.1429798
23/05/2024 12:16,139.8200532
23/05/2024 12:16,134.0187422
23/05/2024 12:16,128.8713767
23/05/2024 12:16,126.5778075
23/05/2024 12:16,128.0959314
23/05/2024 12:16,132.5991218
23/05/2024 12:16,138.1435415
23/05/2024 12:16,142.8585404
23/05/2024 12:16,145.5785954
23/05/2024 12:16,145.7080484
23/05/2024 12:16,143.0159079
23/05/2024 12:16,137.8427035
23/05/2024 12:16,131.3744729
23/05/2024 12:16,125.4274809
23/05/2024 12:16,121.7366212
23/05/2024 12:16,121.179326
23/05/2024 12:16,123.3250381
23/05/2024 12:16,126.5499741
23/05/2024 12:16,128.8410967
23/05/2024 12:16,128.9501784
23/05/2024 12:16,127.0583973
23/05/2024 12:16,124.5367171
23/05/2024 12:16,123.2805692
23/05/2024 12:16,125.0247521
23/05/2024 12:16,130.3792921
23/05/2024 12:16,137.6823572
23/05/2024 12:16,142.9836968
23/05/2024 12:16,142.1409567
23/05/2024 12:16,133.7530962
23/05/2024 12:16,120.3769241
23/05/2024 12:16,107.004231
23/05/2024 12:16,98.1878857
23/05/2024 12:16,95.92294103
23/05/2024 12:16,99.28726091
23/05/2024 12:16,105.6313339
23/05/2024 12:16,112.354446
23/05/2024 12:16,118.0939043
23/05/2024 12:16,122.6445651
23/05/2024 12:16,126.0347468
23/05/2024 12:16,127.9044962
23/05/2024 12:16,127.7644573
23/05/2024 12:16,125.6435622
23/05/2024 12:16,122.3954065
23/05/2024 12:16,119.4800082
23/05/2024 12:16,118.4446727
23/05/2024 12:16,120.2706022
23/05/2024 12:16,124.8186082
23/05/2024 12:16,130.7811099
23/05/2024 12:16,136.3050993
23/05/2024 12:16,139.9102595
23/05/2024 12:16,141.088434
23/05/2024 12:16,140.2826337
23/05/2024 12:16,138.3817423
23/05/2024 12:16,136.0510419
23/05/2024 12:16,133.3402259
23/05/2024 12:16,129.915843
23/05/2024 12:16,125.7362072
23/05/2024 12:16,121.481381
23/05/2024 12:16,118.305277
23/05/2024 12:16,117.2239892
23/05/2024 12:16,118.6209532
23/05/2024 12:16,121.9588965
23/05/2024 12:16,125.7490018
23/05/2024 12:16,128.034396
23/05/2024 12:16,127.3828325
23/05/2024 12:16,123.7442982
23/05/2024 12:16,118.4925645
23/05/2024 12:16,113.6819094
23/05/2024 12:16,111.0600892
23/05/2024 12:16,111.1618069
23/05/2024 12:16,112.812244
23/05/2024 12:16,113.7895585
23/05/2024 12:16,112.6147303
23/05/2024 12:16,109.8288679
23/05/2024 12:16,107.411781
23/05/2024 12:16,107.0097858
23/05/2024 12:16,108.6586902
23/05/2024 12:16,110.9104876
23/05/2024 12:16,112.0981095
23/05/2024 12:16,111.7283428
23/05/2024 12:16,110.840185
23/05/2024 12:16,110.9884395
23/05/2024 12:16,112.8207057
23/05/2024 12:16,115.5486716
23/05/2024 12:16,117.7196451
23/05/2024 12:16,118.5115379
23/05/2024 12:16,118.3447744
23/05/2024 12:16,118.2808893
23/05/2024 12:16,118.9016308
23/05/2024 12:16,119.8671546
23/05/2024 12:16,120.4433265
23/05/2024 12:16,120.1838062
23/05/2024 12:16,119.0616726
23/05/2024 12:16,117.2275633
23/05/2024 12:16,114.9172266
23/05/2024 12:16,112.5712529
23/05/2024 12:16,110.8104476
23/05/2024 12:16,110.0384979
23/05/2024 12:16,109.9469567
23/05/2024 12:16,109.5177535
23/05/2024 12:16,107.6964242
23/05/2024 12:16,104.0262183
23/05/2024 12:16,98.5792311
23/05/2024 12:16,91.74249689
23/05/2024 12:16,84.63657976
23/05/2024 12:16,79.41470413
23/05/2024 12:16,78.31442755
23/05/2024 12:16,81.94985542
23/05/2024 12:16,88.54881451
23/05/2024 12:16,95.17451684
23/05/2024 12:16,99.97587712
23/05/2024 12:16,103.2416964
23/05/2024 12:16,106.2796172
23/05/2024 12:16,109.588686
23/05/2024 12:16,112.4171414
23/05/2024 12:16,113.8919044
23/05/2024 12:16,114.0880122
23/05/2024 12:16,113.8000254
23/05/2024 12:16,113.5631583
23/05/2024 12:16,113.2689908
23/05/2024 12:16,112.5897341
23/05/2024 12:16,111.3229262
23/05/2024 12:16,109.3221413
23/05/2024 12:16,106.4856146
23/05/2024 12:16,103.0138322
23/05/2024 12:16,99.57803817
23/05/2024 12:16,97.13123492
23/05/2024 12:16,96.48545596
23/05/2024 12:16,97.94360596
23/05/2024 12:16,101.2236629
23/05/2024 12:16,105.6446831
23/05/2024 12:16,110.34893
23/05/2024 12:16,114.490981
23/05/2024 12:16,117.4927225
23/05/2024 12:16,119.2636669
23/05/2024 12:16,120.0751859
23/05/2024 12:16,120.1367787
23/05/2024 12:16,119.3548289
23/05/2024 12:16,117.5017971
23/05/2024 12:16,114.5261159
23/05/2024 12:16,110.6938797
23/05/2024 12:16,106.5756621
23/05/2024 12:16,102.9783116
23/05/2024 12:16,100.7208043
23/05/2024 12:16,100.2419662
23/05/2024 12:16,101.2793589
23/05/2024 12:16,102.8584263
23/05/2024 12:16,103.6876696
23/05/2024 12:16,102.8729751
23/05/2024 12:16,100.6285397
23/05/2024 12:16,98.40717744
23/05/2024 12:16,98.08543163
23/05/2024 12:16,100.6191588
23/05/2024 12:16,105.2295365
23/05/2024 12:16,109.8645799
23/05/2024 12:16,112.520818
23/05/2024 12:16,112.3364784
23/05/2024 12:16,109.8123795
23/05/2024 12:16,106.2395645
23/05/2024 12:16,102.8849905
23/05/2024 12:16,100.5660016
23/05/2024 12:16,99.7363499
23/05/2024 12:16,100.6278331
23/05/2024 12:16,103.2357245
23/05/2024 12:16,107.3796167
23/05/2024 12:16,112.5834133
23/05/2024 12:16,117.5043328
23/05/2024 12:16,119.8510104
23/05/2024 12:16,117.6491708
23/05/2024 12:16,110.8908465
23/05/2024 12:16,101.8722637
23/05/2024 12:16,93.85313531
23/05/2024 12:16,89.12770936
23/05/2024 12:16,87.87967761
23/05/2024 12:16,88.57067704
23/05/2024 12:16,89.48747304
23/05/2024 12:16,90.12636776
23/05/2024 12:16,91.25850958
23/05/2024 12:16,93.75518342
23/05/2024 12:16,97.51593942
23/05/2024 12:16,101.5604141
23/05/2024 12:16,104.9373056
23/05/2024 12:16,107.3405902
23/05/2024 12:16,108.9072899
23/05/2024 12:16,109.6736071
23/05/2024 12:16,109.4501626
23/05/2024 12:16,108.2826971
23/05/2024 12:16,106.8899609
23/05/2024 12:16,106.3534255
23/05/2024 12:16,107.1704972
23/05/2024 12:16,108.6390816
23/05/2024 12:16,109.3426647
23/05/2024 12:16,108.3446624
23/05/2024 12:16,105.9108037
23/05/2024 12:16,103.1814546
23/05/2024 12:16,101.339136
23/05/2024 12:16,101.0655976
23/05/2024 12:16,102.4827474
23/05/2024 12:16,105.2716046
23/05/2024 12:16,108.7702718
23/05/2024 12:16,112.1320865
23/05/2024 12:16,114.5613405
23/05/2024 12:16,115.4218177
23/05/2024 12:16,114.2080155
23/05/2024 12:16,110.7303725
23/05/2024 12:16,105.5493401
23/05/2024 12:16,100.106539
23/05/2024 12:16,96.16407051
23/05/2024 12:16,94.85039272
23/05/2024 12:16,96.01593611
23/05/2024 12:16,98.39190784
23/05/2024 12:16,100.4360214
23/05/2024 12:16,101.2264487
23/05/2024 12:16,100.8548591
23/05/2024 12:16,100.2108411
23/05/2024 12:16,100.2077218
23/05/2024 12:16,100.8685431
23/05/2024 12:16,101.2662999
23/05/2024 12:16,100.5962065
23/05/2024 12:16,99.13935064
23/05/2024 12:16,97.9405711
23/05/2024 12:16,97.73368665
23/05/2024 12:16,98.41600086
23/05/2024 12:16,99.41021096
23/05/2024 12:16,100.2888059
23/05/2024 12:16,101.0731596
23/05/2024 12:16,102.0995539
23/05/2024 12:16,103.7215578
23/05/2024 12:16,106.1308687
23/05/2024 12:16,109.3770798
23/05/2024 12:16,113.3697615
23/05/2024 12:16,117.6894443
23/05/2024 12:16,121.4055534
23/05/2024 12:16,123.2593232
23/05/2024 12:16,122.2979787
23/05/2024 12:16,118.5585531
23/05/2024 12:16,113.215817
23/05/2024 12:16,108.0202641
23/05/2024 12:16,104.4001148
23/05/2024 12:16,102.7747788
23/05/2024 12:16,102.4490227
23/05/2024 12:16,102.1611422
23/05/2024 12:16,100.9386056
23/05/2024 12:16,98.62314384
23/05/2024 12:16,95.76556131
23/05/2024 12:16,93.17212064
23/05/2024 12:16,91.53612116
23/05/2024 12:16,91.32290572
23/05/2024 12:16,92.79271295
23/05/2024 12:16,95.99708403
23/05/2024 12:16,100.6717067
23/05/2024 12:16,106.1208679
23/05/2024 12:16,111.2773018
23/05/2024 12:16,115.0050922
23/05/2024 12:16,116.5671852
23/05/2024 12:16,116.055879
23/05/2024 12:16,114.4829502
23/05/2024 12:16,113.3427341
23/05/2024 12:16,113.8124868
23/05/2024 12:16,116.1106707
23/05/2024 12:16,119.4561987
23/05/2024 12:16,122.6162812
23/05/2024 12:16,124.5752817
23/05/2024 12:16,124.8615723
23/05/2024 12:16,123.4650581
23/05/2024 12:16,120.4971208
23/05/2024 12:16,115.8573562
23/05/2024 12:16,109.3319644
23/05/2024 12:16,101.242465
23/05/2024 12:16,93.07390003
23/05/2024 12:16,87.24853174
23/05/2024 12:16,85.86152009
23/05/2024 12:16,89.2840791
23/05/2024 12:16,95.74467294
23/05/2024 12:16,102.2483016
23/05/2024 12:16,106.2744581
23/05/2024 12:16,107.2551744
23/05/2024 12:16,106.7942204
23/05/2024 12:16,107.2296616
23/05/2024 12:16,109.5476258
23/05/2024 12:16,112.4421423
23/05/2024 12:16,113.4071781
23/05/2024 12:16,110.9182523
23/05/2024 12:16,105.7474666
23/05/2024 12:16,100.3251663
23/05/2024 12:16,96.85591993
23/05/2024 12:16,95.87425045
23/05/2024 12:16,96.3390269
23/05/2024 12:16,96.90245345
23/05/2024 12:16,97.09148994
23/05/2024 12:16,97.48232196
23/05/2024 12:16,98.97379896
23/05/2024 12:16,101.9557921
23/05/2024 12:16,105.9909875
23/05/2024 12:16,110.1249502
23/05/2024 12:16,113.5073931
23/05/2024 12:16,115.777445
23/05/2024 12:16,116.888674
23/05/2024 12:16,116.6959579
23/05/2024 12:16,114.9413341
23/05/2024 12:16,111.7113787
23/05/2024 12:16,107.8101074
23/05/2024 12:16,104.602613
23/05/2024 12:16,103.2832809
23/05/2024 12:16,103.9865674
23/05/2024 12:16,105.4783914
23/05/2024 12:16,105.9319342
23/05/2024 12:16,104.3067629
23/05/2024 12:16,101.0135015
23/05/2024 12:16,97.12740449
23/05/2024 12:16,93.3284037
23/05/2024 12:16,90.51687385
23/05/2024 12:16,91.4280363
23/05/2024 12:16,99.91432859
23/05/2024 12:16,117.2931884
23/05/2024 12:16,139.4290763
23/05/2024 12:16,158.0067762
23/05/2024 12:16,165.2906654
23/05/2024 12:16,158.6013918
23/05/2024 12:16,141.3515802
23/05/2024 12:16,120.6253309
23/05/2024 12:16,103.4669527
23/05/2024 12:16,93.8905617
23/05/2024 12:16,91.58941628
23/05/2024 12:16,92.86610321
23/05/2024 12:16,93.58195515
23/05/2024 12:16,92.27950525
23/05/2024 12:16,90.9330082
23/05/2024 12:16,92.62356144
23/05/2024 12:16,98.34354005
23/05/2024 12:16,106.0143495
23/05/2024 12:16,112.4300989
23/05/2024 12:16,115.8447304
23/05/2024 12:16,116.6655414
23/05/2024 12:16,116.1818507
23/05/2024 12:16,115.1666858
23/05/2024 12:16,113.6168817
23/05/2024 12:16,111.3198695
23/05/2024 12:16,108.3059564
23/05/2024 12:16,104.834548
23/05/2024 12:16,101.2804087
23/05/2024 12:16,98.20601843
23/05/2024 12:16,96.39078191
23/05/2024 12:16,96.51829594
23/05/2024 12:16,98.69472414
23/05/2024 12:16,102.2041325
23/05/2024 12:16,105.7203483
23/05/2024 12:16,107.9754828
23/05/2024 12:16,108.5145742
23/05/2024 12:16,107.9072193
23/05/2024 12:16,107.2661157
23/05/2024 12:16,107.5582484
23/05/2024 12:16,109.1239099
23/05/2024 12:16,111.4807583
23/05/2024 12:16,113.5959331
23/05/2024 12:16,114.7386721
23/05/2024 12:16,115.3372224
23/05/2024 12:16,116.9090541
23/05/2024 12:16,120.757775
23/05/2024 12:16,126.3705329
23/05/2024 12:16,131.1417971
23/05/2024 12:16,132.020778
23/05/2024 12:16,127.7571905
23/05/2024 12:16,119.8221228
23/05/2024 12:16,111.4620105
23/05/2024 12:16,105.864185
23/05/2024 12:16,104.7138494
23/05/2024 12:16,107.8020667
23/05/2024 12:16,113.542005
23/05/2024 12:16,119.8450719
23/05/2024 12:16,124.9726526
23/05/2024 12:16,128.113258
23/05/2024 12:16,129.4873775
23/05/2024 12:16,129.9517067
23/05/2024 12:16,130.3677152
23/05/2024 12:16,131.0722609
23/05/2024 12:16,131.6780601
23/05/2024 12:16,131.3679707
23/05/2024 12:16,129.6241686
23/05/2024 12:16,126.8685891
23/05/2024 12:16,124.3757639
23/05/2024 12:16,123.4238796
23/05/2024 12:16,124.3549347
23/05/2024 12:16,126.2178397
23/05/2024 12:16,127.1989716
23/05/2024 12:16,125.6050903
23/05/2024 12:16,120.8302027
23/05/2024 12:16,113.7521934
23/05/2024 12:16,106.4392307
23/05/2024 12:16,101.3780652
23/05/2024 12:16,100.4222885
23/05/2024 12:16,103.8248819
23/05/2024 12:16,110.0566988
23/05/2024 12:16,116.6881945
23/05/2024 12:16,121.6784035
23/05/2024 12:16,124.1880271
23/05/2024 12:16,124.5582233
23/05/2024 12:16,123.7490701
23/05/2024 12:16,122.7311143
23/05/2024 12:16,122.0941231
23/05/2024 12:16,121.8426673
23/05/2024 12:16,121.39545
23/05/2024 12:16,120.0100643
23/05/2024 12:16,117.5314577
23/05/2024 12:16,114.8104974
23/05/2024 12:16,113.3443132
23/05/2024 12:16,114.3814005
23/05/2024 12:16,118.0616766
23/05/2024 12:16,123.0224828
23/05/2024 12:16,126.7840428
23/05/2024 12:16,126.9657589
23/05/2024 12:16,122.7395018
23/05/2024 12:16,115.5040782
23/05/2024 12:16,108.179391
23/05/2024 12:16,103.5839152
23/05/2024 12:16,103.1068304
23/05/2024 12:16,106.3513461
23/05/2024 12:16,111.5234772
23/05/2024 12:16,116.1874271
23/05/2024 12:16,118.2720088
23/05/2024 12:16,117.01957
23/05/2024 12:16,113.2872859
23/05/2024 12:16,109.0064762
23/05/2024 12:16,106.1644687
23/05/2024 12:16,105.8389242
23/05/2024 12:16,107.7117852
23/05/2024 12:16,110.278916
23/05/2024 12:16,111.7239101
23/05/2024 12:16,111.0653726
23/05/2024 12:16,108.8846524
23/05/2024 12:16,106.9955131
23/05/2024 12:16,107.0993906
23/05/2024 12:16,109.4625684
23/05/2024 12:16,112.7657307
23/05/2024 12:16,115.2105511
23/05/2024 12:16,115.8789935
23/05/2024 12:16,115.2198909
23/05/2024 12:16,114.3959057
23/05/2024 12:16,114.2010398
23/05/2024 12:16,114.5295477
23/05/2024 12:16,114.687481
23/05/2024 12:16,114.0291641
23/05/2024 12:16,112.3912549
23/05/2024 12:16,110.194279
23/05/2024 12:16,108.2397915
23/05/2024 12:16,107.2770535
23/05/2024 12:16,107.5833203
23/05/2024 12:16,108.8962672
23/05/2024 12:16,110.7260304
23/05/2024 12:16,112.6818859
23/05/2024 12:16,114.5308691
23/05/2024 12:16,116.132732
23/05/2024 12:16,117.4709689
23/05/2024 12:16,118.5346983
23/05/2024 12:16,118.9405303
23/05/2024 12:16,117.9759187
23/05/2024 12:16,115.4056801
23/05/2024 12:16,112.1132335
23/05/2024 12:16,109.6509622
23/05/2024 12:16,109.1194122
23/05/2024 12:16,110.4518212
23/05/2024 12:16,112.6057148
23/05/2024 12:16,114.3678374
23/05/2024 12:16,115.0843072
23/05/2024 12:16,114.8192526
23/05/2024 12:16,114.0581089
23/05/2024 12:16,113.3524039
23/05/2024 12:16,113.1674045
23/05/2024 12:16,113.8504112
23/05/2024 12:16,115.526294
23/05/2024 12:16,117.8874032
23/05/2024 12:16,120.0926257
23/05/2024 12:16,121.1013519
23/05/2024 12:16,120.3609045
23/05/2024 12:16,118.1866477
23/05/2024 12:16,115.3657307
23/05/2024 12:16,112.3921501
23/05/2024 12:16,109.1624964
23/05/2024 12:16,105.4302838
23/05/2024 12:16,101.5672906
23/05/2024 12:16,98.88288459
23/05/2024 12:16,99.03502873
23/05/2024 12:16,102.8339507
23/05/2024 12:16,109.3239712
23/05/2024 12:16,115.9473863
23/05/2024 12:16,119.8906852
23/05/2024 12:16,119.7286142
23/05/2024 12:16,116.1131084
23/05/2024 12:16,111.0449387
23/05/2024 12:16,106.4754618
23/05/2024 12:16,103.3023415
23/05/2024 12:16,101.2627984
23/05/2024 12:16,99.61393263
23/05/2024 12:16,98.01526985
23/05/2024 12:16,96.85259276
23/05/2024 12:16,96.78517818
23/05/2024 12:16,98.04013555
23/05/2024 12:16,100.0811763
23/05/2024 12:16,101.8543558
23/05/2024 12:16,102.4900706
23/05/2024 12:16,102.0507134
23/05/2024 12:16,101.7029579
23/05/2024 12:16,103.0125085
23/05/2024 12:16,106.7458568
23/05/2024 12:16,112.0606073
23/05/2024 12:16,116.8329415
23/05/2024 12:16,118.9672887
23/05/2024 12:16,117.7241927
23/05/2024 12:16,114.2044325
23/05/2024 12:16,110.8019737
23/05/2024 12:16,109.9090346
23/05/2024 12:16,112.5017537
23/05/2024 12:16,117.5584239
23/05/2024 12:16,122.8297589
23/05/2024 12:16,126.3035224
23/05/2024 12:16,127.1146907
23/05/2024 12:16,125.4102837
23/05/2024 12:16,121.8711711
23/05/2024 12:16,117.5121686
23/05/2024 12:16,113.5128265
23/05/2024 12:16,110.7774261
23/05/2024 12:16,109.4820853
23/05/2024 12:16,109.0485097
23/05/2024 12:16,108.609714
23/05/2024 12:16,107.6653272
23/05/2024 12:16,106.4298014
23/05/2024 12:16,105.4949785
23/05/2024 12:16,105.0799828
23/05/2024 12:16,104.6944764
23/05/2024 12:16,103.6834546
23/05/2024 12:16,102.1101984
23/05/2024 12:16,100.9045582
23/05/2024 12:16,100.9849075
23/05/2024 12:16,102.2250394
23/05/2024 12:16,103.3932534
23/05/2024 12:16,103.2261783
23/05/2024 12:16,101.5984492
23/05/2024 12:16,99.65041649
23/05/2024 12:16,98.8177388
23/05/2024 12:16,99.74863312
23/05/2024 12:16,102.0195413
23/05/2024 12:16,104.5975061
23/05/2024 12:16,106.4142951
23/05/2024 12:16,106.6505556
23/05/2024 12:16,104.8232771
23/05/2024 12:16,100.926803
23/05/2024 12:16,95.6467516
23/05/2024 12:16,90.4678466
23/05/2024 12:16,87.40329946
23/05/2024 12:16,88.18704473
23/05/2024 12:16,93.21798844
23/05/2024 12:16,100.9954247
23/05/2024 12:16,108.649966
23/05/2024 12:16,113.2734521
23/05/2024 12:16,113.1385128
23/05/2024 12:16,108.2947114
23/05/2024 12:16,100.5949377
23/05/2024 12:16,93.16154958
23/05/2024 12:16,89.1446413
23/05/2024 12:16,90.09213029
23/05/2024 12:16,94.98768344
23/05/2024 12:16,100.8352827
23/05/2024 12:16,104.517118
23/05/2024 12:16,104.7232149
23/05/2024 12:16,102.6182849
23/05/2024 12:16,101.0355616
23/05/2024 12:16,102.7714985
23/05/2024 12:16,109.0118636
23/05/2024 12:16,118.6992575
23/05/2024 12:16,129.0631892
23/05/2024 12:16,137.0333966
23/05/2024 12:16,140.8719301
23/05/2024 12:16,141.1111079
23/05/2024 12:16,140.0896463
23/05/2024 12:16,140.2735977
23/05/2024 12:16,142.5290683
23/05/2024 12:16,145.6039534
23/05/2024 12:16,147.1407142
23/05/2024 12:16,145.2855384
23/05/2024 12:16,139.5863512
23/05/2024 12:16,130.7801357
23/05/2024 12:16,120.1156144
23/05/2024 12:16,108.9307626
23/05/2024 12:16,98.54867294
23/05/2024 12:16,90.18243786
23/05/2024 12:16,84.68110344
23/05/2024 12:16,82.13429126
23/05/2024 12:16,81.51042108
23/05/2024 12:16,80.74242452
23/05/2024 12:16,77.5853011
23/05/2024 12:16,70.85929226
23/05/2024 12:16,61.12439814
23/05/2024 12:16,50.33780292
23/05/2024 12:16,40.9551318
23/05/2024 12:16,35.10232516
23/05/2024 12:16,33.98184318
23/05/2024 12:16,37.4749555
23/05/2024 12:16,44.1039174
23/05/2024 12:16,51.4423634
23/05/2024 12:16,56.83336153
23/05/2024 12:16,58.28043848
23/05/2024 12:16,55.21995271
23/05/2024 12:16,48.72321722
23/05/2024 12:16,41.00697032
23/05/2024 12:16,34.54344855
23/05/2024 12:16,31.1174991
23/05/2024 12:16,31.22873706
23/05/2024 12:16,34.23289896
23/05/2024 12:16,39.06617749
23/05/2024 12:16,44.81309728
23/05/2024 12:16,50.69602723
23/05/2024 12:16,55.79560428
23/05/2024 12:16,59.13763598
23/05/2024 12:16,60.33357069
23/05/2024 12:16,60.26308027
23/05/2024 12:16,60.98375254
23/05/2024 12:16,64.54660649
23/05/2024 12:16,71.46367177
23/05/2024 12:16,80.15188881
23/05/2024 12:16,87.96205802
23/05/2024 12:16,92.97890848
23/05/2024 12:16,95.07240598
23/05/2024 12:16,95.43309461
23/05/2024 12:16,95.2678134
23/05/2024 12:16,95.0131744
23/05/2024 12:16,94.57357303
23/05/2024 12:16,93.8503684
23/05/2024 12:16,92.85582731
23/05/2024 12:16,91.57265243
23/05/2024 12:16,89.99818977
23/05/2024 12:16,88.388285
23/05/2024 12:16,87.35740098
23/05/2024 12:16,87.64608756
23/05/2024 12:16,89.73274388
23/05/2024 12:16,93.63188939
23/05/2024 12:16,98.9705521
23/05/2024 12:16,105.1352105
23/05/2024 12:16,111.4087845
23/05/2024 12:16,117.2061808
23/05/2024 12:16,122.3520543
23/05/2024 12:16,127.1172034
23/05/2024 12:16,131.8928658
23/05/2024 12:16,136.8294522
23/05/2024 12:16,141.7611488
23/05/2024 12:16,146.2959674
23/05/2024 12:16,149.9326393
23/05/2024 12:16,152.3994281
23/05/2024 12:16,154.2391364
23/05/2024 12:16,156.8252669
23/05/2024 12:16,161.1484516
23/05/2024 12:16,166.3619865
23/05/2024 12:16,169.8993736
23/05/2024 12:16,169.4387163
23/05/2024 12:16,164.9208625
23/05/2024 12:16,158.8209717
23/05/2024 12:16,154.6249323
23/05/2024 12:16,154.6886701
23/05/2024 12:16,158.8680591
23/05/2024 12:16,164.7979478
23/05/2024 12:16,169.6371088
23/05/2024 12:16,171.9508108
23/05/2024 12:16,172.3124111
23/05/2024 12:16,172.4109353
23/05/2024 12:16,173.613397
23/05/2024 12:16,176.0574766
23/05/2024 12:16,178.741986
23/05/2024 12:16,180.3616675
23/05/2024 12:16,180.2717505
23/05/2024 12:16,178.9263602
23/05/2024 12:16,177.4472869
23/05/2024 12:16,176.6293421
23/05/2024 12:16,176.2293519
23/05/2024 12:16,175.1462091
23/05/2024 12:16,172.2192751
23/05/2024 12:16,167.0309195
23/05/2024 12:16,160.4259764
23/05/2024 12:16,154.4879177
23/05/2024 12:16,151.6406801
23/05/2024 12:16,153.0931301
23/05/2024 12:16,157.6898041
23/05/2024 12:16,162.2753234
23/05/2024 12:16,163.5910167
23/05/2024 12:16,160.4713857
23/05/2024 12:16,154.7187504
23/05/2024 12:16,149.8968114
23/05/2024 12:16,148.9125873
23/05/2024 12:16,152.188581
23/05/2024 12:16,157.6692168
23/05/2024 12:16,162.4343503
23/05/2024 12:16,164.6376376
23/05/2024 12:16,164.4542404
23/05/2024 12:16,163.5779067
23/05/2024 12:16,163.855434
23/05/2024 12:16,165.9802911
23/05/2024 12:16,168.9604965
23/05/2024 12:16,170.7605918
23/05/2024 12:16,169.7454948
23/05/2024 12:16,165.853465
23/05/2024 12:16,160.7437119
23/05/2024 12:16,157.0155166
23/05/2024 12:16,156.9639401
23/05/2024 12:16,161.3356658
23/05/2024 12:16,168.7272346
23/05/2024 12:16,176.1311907
23/05/2024 12:16,180.4519125
23/05/2024 12:16,180.1836876
23/05/2024 12:16,176.1714829
23/05/2024 12:16,170.8674756
23/05/2024 12:16,166.6399492
23/05/2024 12:16,164.4465309
23/05/2024 12:16,163.6666955
23/05/2024 12:16,162.8459361
23/05/2024 12:16,160.742298
23/05/2024 12:16,157.1682283
23/05/2024 12:16,153.15723
23/05/2024 12:16,150.2102156
23/05/2024 12:16,149.0593031
23/05/2024 12:16,149.0093004
23/05/2024 12:16,148.5518847
23/05/2024 12:16,146.7599804
23/05/2024 12:16,144.1693833
23/05/2024 12:16,142.313867
23/05/2024 12:16,142.4084853
23/05/2024 12:16,144.3812566
23/05/2024 12:16,146.9420083
23/05/2024 12:16,148.4705609
23/05/2024 12:16,148.0183294
23/05/2024 12:16,145.8260382
23/05/2024 12:16,143.1515842
23/05/2024 12:16,141.5836088
23/05/2024 12:16,142.187342
23/05/2024 12:16,144.8749971
23/05/2024 12:16,148.435461
23/05/2024 12:16,151.3005225
23/05/2024 12:16,152.4737077
23/05/2024 12:16,151.9473171
23/05/2024 12:16,150.4601149
23/05/2024 12:16,148.91744
23/05/2024 12:16,147.8539284
23/05/2024 12:16,147.2257838
23/05/2024 12:16,146.6593098
23/05/2024 12:16,146.0103698
23/05/2024 12:16,145.7676541
23/05/2024 12:16,146.698445
23/05/2024 12:16,148.894904
23/05/2024 12:16,151.3915942
23/05/2024 12:16,152.9385515
23/05/2024 12:16,152.9570567
23/05/2024 12:16,151.5976786
23/05/2024 12:16,149.2359327
23/05/2024 12:16,146.3110823
23/05/2024 12:16,143.4890861
23/05/2024 12:16,141.5486234
23/05/2024 12:16,140.9594325
23/05/2024 12:16,141.6316702
23/05/2024 12:16,143.0301789
23/05/2024 12:16,144.4192128
23/05/2024 12:16,145.1201509
23/05/2024 12:16,144.7527402
23/05/2024 12:16,143.3816719
23/05/2024 12:16,141.5072034
23/05/2024 12:16,139.873285
23/05/2024 12:16,139.1361652
23/05/2024 12:16,139.5140294
23/05/2024 12:16,140.596834
23/05/2024 12:16,141.4662754
23/05/2024 12:16,141.1523527
23/05/2024 12:16,139.2496046
23/05/2024 12:16,136.2286406
23/05/2024 12:16,133.0585564
23/05/2024 12:16,130.3865091
23/05/2024 12:16,127.9699501
23/05/2024 12:16,124.860934
23/05/2024 12:16,120.2198522
23/05/2024 12:16,114.1326285
23/05/2024 12:16,107.7677384
23/05/2024 12:16,102.6959502
23/05/2024 12:16,99.93499386
23/05/2024 12:16,99.53197199
23/05/2024 12:16,100.9543407
23/05/2024 12:16,103.7670791
23/05/2024 12:16,107.8107373
23/05/2024 12:16,112.7541792
23/05/2024 12:16,117.6747057
23/05/2024 12:16,121.2596904
23/05/2024 12:16,122.4994468
23/05/2024 12:16,121.2770115
23/05/2024 12:16,118.4804941
23/05/2024 12:16,115.5841279
23/05/2024 12:16,113.8370562
23/05/2024 12:16,113.6071526
23/05/2024 12:16,114.5742563
23/05/2024 12:16,116.5736565
23/05/2024 12:16,119.7187653
23/05/2024 12:16,123.3331026
23/05/2024 12:16,125.3856151
23/05/2024 12:16,123.7789398
23/05/2024 12:16,118.2538663
23/05/2024 12:16,110.8134803
23/05/2024 12:16,104.3687783
23/05/2024 12:16,101.0191046
23/05/2024 12:16,101.1444829
23/05/2024 12:16,103.5930411
23/05/2024 12:16,106.6668721
23/05/2024 12:16,109.2315893
23/05/2024 12:16,111.1113095
23/05/2024 12:16,112.5180989
23/05/2024 12:16,113.3076365
23/05/2024 12:16,113.0252627
23/05/2024 12:16,111.6704614
23/05/2024 12:16,110.1581468
23/05/2024 12:16,109.7516298
23/05/2024 12:16,110.976555
23/05/2024 12:16,113.1175494
23/05/2024 12:16,114.7388024
23/05/2024 12:16,114.613835
23/05/2024 12:16,112.2387522
23/05/2024 12:16,107.8630895
23/05/2024 12:16,102.4534022
23/05/2024 12:16,97.63858887
23/05/2024 12:16,95.24395716
23/05/2024 12:16,96.30771808
23/05/2024 12:16,100.237709
23/05/2024 12:16,104.9677126
23/05/2024 12:16,108.2068033
23/05/2024 12:16,108.878946
23/05/2024 12:16,107.6014911
23/05/2024 12:16,105.9166815
23/05/2024 12:16,105.0866316
23/05/2024 12:16,105.4701262
23/05/2024 12:16,106.7385009
23/05/2024 12:16,108.4375975
23/05/2024 12:16,110.3555059
23/05/2024 12:16,112.4675839
23/05/2024 12:16,114.5886355
23/05/2024 12:16,116.1862388
23/05/2024 12:16,116.7388538
23/05/2024 12:16,116.3926853
23/05/2024 12:16,116.0640291
23/05/2024 12:16,116.6129423
23/05/2024 12:16,117.9683763
23/05/2024 12:16,119.2144541
23/05/2024 12:16,119.3424016
23/05/2024 12:16,117.6149897
23/05/2024 12:16,113.4632102
23/05/2024 12:16,106.7163529
23/05/2024 12:16,98.2101189
23/05/2024 12:16,89.94690176
23/05/2024 12:16,84.44542493
23/05/2024 12:16,83.7237942
23/05/2024 12:16,88.42579297
23/05/2024 12:16,97.32734464
23/05/2024 12:16,107.5563256
23/05/2024 12:16,115.7634296
23/05/2024 12:16,119.8061792
23/05/2024 12:16,119.8198803
23/05/2024 12:16,117.8512494
23/05/2024 12:16,116.4259261
23/05/2024 12:16,117.1317317
23/05/2024 12:16,119.9659831
23/05/2024 12:16,123.5641036
23/05/2024 12:16,126.0117554
23/05/2024 12:16,125.8013783
23/05/2024 12:16,122.5166593
23/05/2024 12:16,116.9511251
23/05/2024 12:16,110.5780395
23/05/2024 12:16,104.7010331
23/05/2024 12:16,99.94854331
23/05/2024 12:16,96.42239557
23/05/2024 12:16,94.11596944
23/05/2024 12:16,93.10709323
23/05/2024 12:16,93.44455407
23/05/2024 12:16,94.94064304
23/05/2024 12:16,97.05313419
23/05/2024 12:16,99.00819783
23/05/2024 12:16,100.1512868
23/05/2024 12:16,100.2333276
23/05/2024 12:16,99.42274083
23/05/2024 12:16,98.12639818
23/05/2024 12:16,96.78335506
23/05/2024 12:16,95.67191843
23/05/2024 12:16,94.71085855
23/05/2024 12:16,93.39078068
23/05/2024 12:16,91.10397791
23/05/2024 12:16,87.82121274
23/05/2024 12:16,84.50950305
23/05/2024 12:16,82.82177837
23/05/2024 12:16,84.27324504
23/05/2024 12:16,89.33366567
23/05/2024 12:16,96.83283443
23/05/2024 12:16,104.2189356
23/05/2024 12:16,108.7952498
23/05/2024 12:16,109.1958112
23/05/2024 12:16,106.0919149
23/05/2024 12:16,101.6657087
23/05/2024 12:16,98.25596552
23/05/2024 12:16,97.05209179
23/05/2024 12:16,97.68598436
23/05/2024 12:16,98.82964314
23/05/2024 12:16,99.20207662
23/05/2024 12:16,98.30143132
23/05/2024 12:16,96.48741685
23/05/2024 12:16,94.48001852
23/05/2024 12:16,92.77919644
23/05/2024 12:16,91.56353241
23/05/2024 12:16,91.02244125
23/05/2024 12:16,91.49713946
23/05/2024 12:16,93.17493622
23/05/2024 12:16,95.76974799
23/05/2024 12:16,98.57459002
23/05/2024 12:16,100.7457856
23/05/2024 12:16,101.595558
23/05/2024 12:16,100.9407627
23/05/2024 12:16,99.33072333
23/05/2024 12:16,97.71305625
23/05/2024 12:16,96.70723978
23/05/2024 12:16,96.28830722
23/05/2024 12:16,96.22807136
23/05/2024 12:16,96.64430324
23/05/2024 12:16,97.92331004
23/05/2024 12:16,100.115707
23/05/2024 12:16,102.4949078
23/05/2024 12:16,103.8034761
23/05/2024 12:16,103.0864358
23/05/2024 12:16,100.4543432
23/05/2024 12:16,97.10448398
23/05/2024 12:16,94.49097607
23/05/2024 12:16,93.31360422
23/05/2024 12:16,93.19038058
23/05/2024 12:16,93.24103968
23/05/2024 12:16,93.01350355
23/05/2024 12:16,93.03383794
23/05/2024 12:16,94.61454476
23/05/2024 12:16,98.82858702
23/05/2024 12:16,105.2108561
23/05/2024 12:16,111.5304868
23/05/2024 12:16,115.1091313
23/05/2024 12:16,114.4236049
23/05/2024 12:16,109.6653447
23/05/2024 12:16,102.3254032
23/05/2024 12:16,94.46457157
23/05/2024 12:16,87.91772181
23/05/2024 12:16,83.53846294
23/05/2024 12:16,80.76154904
23/05/2024 12:16,77.80957054
23/05/2024 12:16,72.65275481
23/05/2024 12:16,64.1793927
23/05/2024 12:16,52.91980599
23/05/2024 12:16,41.40089203
23/05/2024 12:16,33.85914462
23/05/2024 12:16,33.96924046
23/05/2024 12:16,41.49055684
23/05/2024 12:16,51.96974075
23/05/2024 12:16,60.49276875
23/05/2024 12:16,64.84204385
23/05/2024 12:16,65.04314854
23/05/2024 12:16,61.60173559
23/05/2024 12:16,54.86241507
23/05/2024 12:16,45.35033222
23/05/2024 12:16,34.85736913
23/05/2024 12:16,27.51685561
23/05/2024 12:16,28.36863342
23/05/2024 12:16,39.39474458
23/05/2024 12:16,57.48303692
23/05/2024 12:16,76.88253427
23/05/2024 12:16,93.15351723
23/05/2024 12:16,104.9577106
23/05/2024 12:16,113.0099882
23/05/2024 12:16,117.6257854
23/05/2024 12:16,117.3911517
23/05/2024 12:16,110.4083542
23/05/2024 12:16,96.67765267
23/05/2024 12:16,79.17057316
23/05/2024 12:16,62.64278582
23/05/2024 12:16,51.11303685
23/05/2024 12:16,45.93958124
23/05/2024 12:16,45.86245653
23/05/2024 12:16,48.6088666
23/05/2024 12:16,52.43495247
23/05/2024 12:16,56.55168399
23/05/2024 12:16,60.77070036
23/05/2024 12:16,65.25926158
23/05/2024 12:16,70.57315321
23/05/2024 12:16,77.26959676
23/05/2024 12:16,84.93734116
23/05/2024 12:16,91.83710157
23/05/2024 12:16,96.03672541
23/05/2024 12:16,97.04729332
23/05/2024 12:16,96.22605465
23/05/2024 12:16,95.64904512
23/05/2024 12:16,96.75581147
23/05/2024 12:16,99.94228302
23/05/2024 12:16,105.0240837
23/05/2024 12:16,111.6787346
23/05/2024 12:16,119.3668263
23/05/2024 12:16,127.1406723
23/05/2024 12:16,133.9018715
23/05/2024 12:16,139.02083
23/05/2024 12:16,142.693845
23/05/2024 12:16,145.7194378
23/05/2024 12:16,148.9093707
23/05/2024 12:16,152.5218616
23/05/2024 12:16,156.1013862
23/05/2024 12:16,158.9469827
23/05/2024 12:16,160.911401
23/05/2024 12:16,162.7692189
23/05/2024 12:16,165.6373943
23/05/2024 12:16,169.8912486
23/05/2024 12:16,174.6443819
23/05/2024 12:16,178.3021106
23/05/2024 12:16,179.5466128
23/05/2024 12:16,177.8774579
23/05/2024 12:16,173.6602852
23/05/2024 12:16,168.079565
23/05/2024 12:16,162.9592529
23/05/2024 12:16,160.12782
23/05/2024 12:16,160.4243871
23/05/2024 12:16,163.1263424
23/05/2024 12:16,166.4806459
23/05/2024 12:16,169.0030735
23/05/2024 12:16,170.4388511
23/05/2024 12:16,171.6111159
23/05/2024 12:16,173.4404641
23/05/2024 12:16,176.0681747
23/05/2024 12:16,178.7028579
23/05/2024 12:16,180.0377559
23/05/2024 12:16,178.8346454
23/05/2024 12:16,174.5462133
23/05/2024 12:16,167.7664903
23/05/2024 12:16,160.168156
23/05/2024 12:16,154.0300346
23/05/2024 12:16,151.6105313
23/05/2024 12:16,154.3115076
23/05/2024 12:16,161.7028158
23/05/2024 12:16,171.1708225
23/05/2024 12:16,178.9763371
23/05/2024 12:16,182.3411116
23/05/2024 12:16,181.0212121
23/05/2024 12:16,177.0923701
23/05/2024 12:16,173.2353475
23/05/2024 12:16,171.0593346
23/05/2024 12:16,170.6047475
23/05/2024 12:16,170.9715154
23/05/2024 12:16,171.2645215
23/05/2024 12:16,171.1819305
23/05/2024 12:16,171.0168705
23/05/2024 12:16,171.1922111
23/05/2024 12:16,171.7629546
23/05/2024 12:16,172.3262016
23/05/2024 12:16,172.3788947
23/05/2024 12:16,171.8246748
23/05/2024 12:16,171.1976291
23/05/2024 12:16,171.3237138
23/05/2024 12:16,172.5898221
23/05/2024 12:16,174.4558512
23/05/2024 12:16,175.7591655
23/05/2024 12:16,175.5044605
23/05/2024 12:16,173.1707164
23/05/2024 12:16,168.5262186
23/05/2024 12:16,162.2669363
23/05/2024 12:16,157.2308974
23/05/2024 12:16,157.5859329
23/05/2024 12:16,165.7295184
23/05/2024 12:16,180.062813
23/05/2024 12:16,195.8683221
23/05/2024 12:16,208.1134242
23/05/2024 12:16,213.7469178
23/05/2024 12:16,212.3037993
23/05/2024 12:16,205.3281919
23/05/2024 12:16,195.5375062
23/05/2024 12:16,185.8518268
23/05/2024 12:16,178.0882227
23/05/2024 12:16,172.0240522
23/05/2024 12:16,165.9924383
23/05/2024 12:16,158.8190079
23/05/2024 12:16,151.3163699
23/05/2024 12:16,145.8056811
23/05/2024 12:16,144.0988292
23/05/2024 12:16,146.0287634
23/05/2024 12:16,150.0347243
23/05/2024 12:16,154.9485808
23/05/2024 12:16,160.7101481
23/05/2024 12:16,167.1941141
23/05/2024 12:16,172.8509939
23/05/2024 12:16,175.137225
23/05/2024 12:16,172.4757043
23/05/2024 12:16,165.6620857
23/05/2024 12:16,157.3452365
23/05/2024 12:16,150.2874644
23/05/2024 12:16,145.973517
23/05/2024 12:16,144.3772531
23/05/2024 12:16,144.5382405
23/05/2024 12:16,145.2264309
23/05/2024 12:16,145.3164247
23/05/2024 12:16,143.9295757
23/05/2024 12:16,140.6049858
23/05/2024 12:16,135.5880933
23/05/2024 12:16,129.9491889
23/05/2024 12:16,125.2233252
23/05/2024 12:16,122.6654465
23/05/2024 12:16,122.5985842
23/05/2024 12:16,124.2695785
23/05/2024 12:16,126.2679038
23/05/2024 12:16,127.2208679
23/05/2024 12:16,126.3521507
23/05/2024 12:16,123.6605732
23/05/2024 12:16,119.7636732
23/05/2024 12:16,115.6322168
23/05/2024 12:16,112.3919836
23/05/2024 12:16,111.1066961
23/05/2024 12:16,112.3845059
23/05/2024 12:16,115.9395403
23/05/2024 12:16,120.5331511
23/05/2024 12:16,124.5008758
23/05/2024 12:16,126.5025849
23/05/2024 12:16,125.9908541
23/05/2024 12:16,123.2336667
23/05/2024 12:16,119.0570227
23/05/2024 12:16,114.5272492
23/05/2024 12:16,110.6745285
23/05/2024 12:16,108.279062
23/05/2024 12:16,107.7119288
23/05/2024 12:16,108.8915921
23/05/2024 12:16,111.4661153
23/05/2024 12:16,115.1252669
23/05/2024 12:16,119.6315368
23/05/2024 12:16,124.3991208
23/05/2024 12:16,128.4436627
23/05/2024 12:16,131.3314178
23/05/2024 12:16,133.8324428
23/05/2024 12:16,137.0236137
23/05/2024 12:16,140.9031786
23/05/2024 12:16,144.0101619
23/05/2024 12:16,144.1274616
23/05/2024 12:16,139.5807919
23/05/2024 12:16,130.5168874
23/05/2024 12:16,119.2404242
23/05/2024 12:16,109.1192853
23/05/2024 12:16,102.7320384
23/05/2024 12:16,100.5714188
23/05/2024 12:16,101.2378819
23/05/2024 12:16,102.8492446
23/05/2024 12:16,104.4415932
23/05/2024 12:16,106.3508911
23/05/2024 12:16,109.4850225
23/05/2024 12:16,114.1881613
23/05/2024 12:16,119.5918651
23/05/2024 12:16,123.9526792
23/05/2024 12:16,125.6846319
23/05/2024 12:16,124.2402637
23/05/2024 12:16,120.2377537
23/05/2024 12:16,114.917664
23/05/2024 12:16,109.4680753
23/05/2024 12:16,104.6797379
23/05/2024 12:16,100.9618396
23/05/2024 12:16,98.54665323
23/05/2024 12:16,97.70312562
23/05/2024 12:16,98.68614334
23/05/2024 12:16,101.2573669
23/05/2024 12:16,104.2092853
23/05/2024 12:16,105.6905735
23/05/2024 12:16,104.394727
23/05/2024 12:16,100.5276644
23/05/2024 12:16,95.54637318
23/05/2024 12:16,90.96198223
23/05/2024 12:16,87.45671843
23/05/2024 12:16,85.02950963
23/05/2024 12:16,83.7497905
23/05/2024 12:16,84.20950388
23/05/2024 12:16,87.13793681
23/05/2024 12:16,92.51146454
23/05/2024 12:16,98.98258577
23/05/2024 12:16,104.1847073
23/05/2024 12:16,105.891149
23/05/2024 12:16,103.4556221
23/05/2024 12:16,98.50413156
23/05/2024 12:16,93.89832716
23/05/2024 12:16,91.43184353
23/05/2024 12:16,90.42119953
23/05/2024 12:16,88.74703391
23/05/2024 12:16,85.2592643
23/05/2024 12:16,81.02335488
23/05/2024 12:16,78.31112998
23/05/2024 12:16,78.6189252
23/05/2024 12:16,81.57381953
23/05/2024 12:16,85.42414781
23/05/2024 12:16,88.38984326
23/05/2024 12:16,89.75098219
23/05/2024 12:16,90.03734457
23/05/2024 12:16,90.37249609
23/05/2024 12:16,91.55712231
23/05/2024 12:16,93.5420487
23/05/2024 12:16,95.60242097
23/05/2024 12:16,97.01019271
23/05/2024 12:16,97.56027015
23/05/2024 12:16,97.48445456
23/05/2024 12:16,97.03237589
23/05/2024 12:16,96.31336959
23/05/2024 12:16,95.43592345
23/05/2024 12:16,94.46419927
23/05/2024 12:16,93.14421235
23/05/2024 12:16,90.93341992
23/05/2024 12:16,87.53666468
23/05/2024 12:16,83.39522609
23/05/2024 12:16,79.55300337
23/05/2024 12:16,77.04340245
23/05/2024 12:16,76.36532062
23/05/2024 12:16,77.38756537
23/05/2024 12:16,79.58755785
23/05/2024 12:16,82.3698155
23/05/2024 12:16,85.31721211
23/05/2024 12:16,88.26820798
23/05/2024 12:16,91.16749027
23/05/2024 12:16,93.89340951
23/05/2024 12:16,96.25612342
23/05/2024 12:16,98.04034629
23/05/2024 12:16,98.94102588
23/05/2024 12:16,98.6056216
23/05/2024 12:16,97.03055549
23/05/2024 12:16,95.16736215
23/05/2024 12:16,95.14068769
23/05/2024 12:16,99.22630145
23/05/2024 12:16,107.689388
23/05/2024 12:16,117.4556713
23/05/2024 12:16,123.4928052
23/05/2024 12:16,122.1150574
23/05/2024 12:16,113.4684611
23/05/2024 12:16,101.3680452
23/05/2024 12:16,90.86886804
23/05/2024 12:16,85.3697789
23/05/2024 12:16,85.14701042
23/05/2024 12:16,88.05846785
23/05/2024 12:16,91.49597808
23/05/2024 12:16,93.95499543
23/05/2024 12:16,95.25633526
23/05/2024 12:16,95.81520617
23/05/2024 12:16,95.96626117
23/05/2024 12:16,95.88104031
23/05/2024 12:16,95.76713801
23/05/2024 12:16,95.79778398
23/05/2024 12:16,95.77155186
23/05/2024 12:16,95.01663013
23/05/2024 12:16,92.86152604
23/05/2024 12:16,89.32595871
23/05/2024 12:16,85.31971789
23/05/2024 12:16,82.11810956
23/05/2024 12:16,80.60221877
23/05/2024 12:16,80.89489251
23/05/2024 12:16,82.5452167
23/05/2024 12:16,84.93227441
23/05/2024 12:16,87.56984172
23/05/2024 12:16,90.25461385
23/05/2024 12:16,93.05476137
23/05/2024 12:16,96.09080583
23/05/2024 12:16,99.17352799
23/05/2024 12:16,101.5804795
23/05/2024 12:16,102.2622775
23/05/2024 12:16,100.4973752
23/05/2024 12:16,96.58330549
23/05/2024 12:16,91.92176924
23/05/2024 12:16,88.26247748
23/05/2024 12:16,86.59739265
23/05/2024 12:16,86.5906965
23/05/2024 12:16,87.01108269
23/05/2024 12:16,86.72992602
23/05/2024 12:16,85.48832635
23/05/2024 12:16,83.97425816
23/05/2024 12:16,83.2470909
23/05/2024 12:16,83.97811205
23/05/2024 12:16,86.1190563
23/05/2024 12:16,89.19708209
23/05/2024 12:16,92.71703609
23/05/2024 12:16,96.21742463
23/05/2024 12:16,99.22481967
23/05/2024 12:16,101.3652684
23/05/2024 12:16,102.4000745
23/05/2024 12:16,102.0820083
23/05/2024 12:16,100.2270301
23/05/2024 12:16,97.19139744
23/05/2024 12:16,94.16721194
23/05/2024 12:16,92.74135694
23/05/2024 12:16,93.9935012
23/05/2024 12:16,97.85155321
23/05/2024 12:16,103.0580835
23/05/2024 12:16,107.6542636
23/05/2024 12:16,109.8569895
23/05/2024 12:16,108.9773851
23/05/2024 12:16,105.7196873
23/05/2024 12:16,101.5466811
23/05/2024 12:16,97.64496988
23/05/2024 12:16,94.39280047
23/05/2024 12:16,91.66162092
23/05/2024 12:16,89.52142743
23/05/2024 12:16,88.63773663
23/05/2024 12:16,89.91795175
23/05/2024 12:16,93.65452673
23/05/2024 12:16,98.94776006
23/05/2024 12:16,104.0608877
23/05/2024 12:16,107.5517882
23/05/2024 12:16,109.1801653
23/05/2024 12:16,109.7851345
23/05/2024 12:16,110.3729785
23/05/2024 12:16,111.2497986
23/05/2024 12:16,111.7221846
23/05/2024 12:16,110.5068011
23/05/2024 12:16,106.7750268
23/05/2024 12:16,101.1549665
23/05/2024 12:16,95.65984033
23/05/2024 12:16,92.42078452
23/05/2024 12:16,92.31725091
23/05/2024 12:16,94.67001911
23/05/2024 12:16,98.09533147
23/05/2024 12:16,101.6256729
23/05/2024 12:16,105.0853472
23/05/2024 12:16,108.4856483
23/05/2024 12:16,111.314769
23/05/2024 12:16,112.7118879
23/05/2024 12:16,112.354707
23/05/2024 12:16,111.0564232
23/05/2024 12:16,110.4426458
23/05/2024 12:16,111.8790591
23/05/2024 12:16,115.3232757
23/05/2024 12:16,119.0384954
23/05/2024 12:16,120.6772177
23/05/2024 12:16,119.0012546
23/05/2024 12:16,114.7799996
23/05/2024 12:16,110.0983596
23/05/2024 12:16,106.7302551
23/05/2024 12:16,105.0594226
23/05/2024 12:16,104.3302485
23/05/2024 12:16,103.6941573
23/05/2024 12:16,103.0601313
23/05/2024 12:16,103.3353549
23/05/2024 12:16,106.0691914
23/05/2024 12:16,112.5194472
23/05/2024 12:16,122.5300424
23/05/2024 12:16,134.0433205
23/05/2024 12:16,143.7270007
23/05/2024 12:16,148.3234844
23/05/2024 12:16,145.9443314
23/05/2024 12:16,136.9742251
23/05/2024 12:16,124.1686342
23/05/2024 12:16,111.0489486
23/05/2024 12:16,99.27675067
23/05/2024 12:16,87.67039301
23/05/2024 12:16,73.8553969
23/05/2024 12:16,56.64882497
23/05/2024 12:16,37.32601126
23/05/2024 12:16,19.23548747
23/05/2024 12:16,5.887470076
23/05/2024 12:16,-1.331371269
23/05/2024 12:16,-3.86511042
23/05/2024 12:16,-4.409020565
23/05/2024 12:16,-4.690228114
23/05/2024 12:16,-4.758434814
23/05/2024 12:16,-3.969730598
23/05/2024 12:16,-2.096048698
23/05/2024 12:16,0.55247704
23/05/2024 12:16,3.614161815
23/05/2024 12:16,6.953262264
23/05/2024 12:16,10.57765776
23/05/2024 12:16,14.45609773
23/05/2024 12:16,18.54195586
23/05/2024 12:16,23.33806171
23/05/2024 12:16,30.43006393
23/05/2024 12:16,41.34517449
23/05/2024 12:16,54.97243005
23/05/2024 12:16,66.77474789
23/05/2024 12:16,71.46950002
23/05/2024 12:16,66.6765021
23/05/2024 12:16,54.42614814
23/05/2024 12:16,39.92009892
23/05/2024 12:16,28.82056682
23/05/2024 12:16,24.73566795
23/05/2024 12:16,28.16207417
23/05/2024 12:16,37.17555387
23/05/2024 12:16,48.98051238
23/05/2024 12:16,61.08612193
23/05/2024 12:16,71.72264761
23/05/2024 12:16,79.88667816
23/05/2024 12:16,85.42376
23/05/2024 12:16,89.0998888
23/05/2024 12:16,92.31705612
23/05/2024 12:16,96.302021
23/05/2024 12:16,101.2705623
23/05/2024 12:16,106.409622
23/05/2024 12:16,110.7437423
23/05/2024 12:16,113.9238039
23/05/2024 12:16,116.1663612
23/05/2024 12:16,117.6335911
23/05/2024 12:16,118.1409806
23/05/2024 12:16,117.6370204
23/05/2024 12:16,116.9177591
23/05/2024 12:16,117.5838881
23/05/2024 12:16,121.0086797
23/05/2024 12:16,127.3258217
23/05/2024 12:16,135.4223699
23/05/2024 12:16,143.7725331
23/05/2024 12:16,151.2616049
23/05/2024 12:16,157.4557318
23/05/2024 12:16,162.3558381
23/05/2024 12:16,165.982676
23/05/2024 12:16,168.179522
23/05/2024 12:16,168.8557362
23/05/2024 12:16,168.445949
23/05/2024 12:16,168.0621338
23/05/2024 12:16,169.0158992
23/05/2024 12:16,171.9985311
23/05/2024 12:16,176.6159178
23/05/2024 12:16,181.6840151
23/05/2024 12:16,186.0023693
23/05/2024 12:16,188.9651584
23/05/2024 12:16,190.6470807
23/05/2024 12:16,191.5127966
23/05/2024 12:16,192.0760156
23/05/2024 12:16,192.6969262
23/05/2024 12:16,193.41745
23/05/2024 12:16,193.7784021
23/05/2024 12:16,192.9201145
23/05/2024 12:16,190.1628096
23/05/2024 12:16,185.6476683
23/05/2024 12:16,180.3521093
23/05/2024 12:16,175.4570433
23/05/2024 12:16,171.814205
23/05/2024 12:16,169.9206704
23/05/2024 12:16,170.0599038
23/05/2024 12:16,172.2005185
23/05/2024 12:16,175.747601
23/05/2024 12:16,179.4825314
23/05/2024 12:16,181.9110151
23/05/2024 12:16,182.010677
23/05/2024 12:16,179.8829639
23/05/2024 12:16,176.6374374
23/05/2024 12:16,173.5868467
23/05/2024 12:16,171.5547114
23/05/2024 12:16,170.8084334
23/05/2024 12:16,171.3039875
23/05/2024 12:16,172.7350695
23/05/2024 12:16,174.3895286
23/05/2024 12:16,175.2221
23/05/2024 12:16,174.3781376
23/05/2024 12:16,171.8065256
23/05/2024 12:16,168.3435268
23/05/2024 12:16,165.2075966
23/05/2024 12:16,163.4312339
23/05/2024 12:16,163.6212735
23/05/2024 12:16,165.9553998
23/05/2024 12:16,170.2150747
23/05/2024 12:16,175.784168
23/05/2024 12:16,181.6026439
23/05/2024 12:16,186.2693017
23/05/2024 12:16,188.5188858
23/05/2024 12:16,187.8129094
23/05/2024 12:16,184.4881215
23/05/2024 12:16,179.3758751
23/05/2024 12:16,173.3708199
23/05/2024 12:16,167.3084625
23/05/2024 12:16,162.0314407
23/05/2024 12:16,158.3611594
23/05/2024 12:16,156.9095102
23/05/2024 12:16,157.8690681
23/05/2024 12:16,160.778939
23/05/2024 12:16,164.3166908
23/05/2024 12:16,166.5828086
23/05/2024 12:16,166.065182
23/05/2024 12:16,162.5785136
23/05/2024 12:16,157.3587216
23/05/2024 12:16,152.3581185
23/05/2024 12:16,149.3120483
23/05/2024 12:16,148.9914591
23/05/2024 12:16,150.9745839
23/05/2024 12:16,154.1502779
23/05/2024 12:16,157.588439
23/05/2024 12:16,161.004218
23/05/2024 12:16,164.466922
23/05/2024 12:16,167.8461483
23/05/2024 12:16,170.6146241
23/05/2024 12:16,172.1325161
23/05/2024 12:16,172.0720853
23/05/2024 12:16,170.5637717
23/05/2024 12:16,167.9549785
23/05/2024 12:16,164.4963759
23/05/2024 12:16,160.3495856
23/05/2024 12:16,155.9157025
23/05/2024 12:16,152.0010292
23/05/2024 12:16,149.4478265
23/05/2024 12:16,148.5079536
23/05/2024 12:16,148.6435989
23/05/2024 12:16,148.954741
23/05/2024 12:16,148.670752
23/05/2024 12:16,147.2663679
23/05/2024 12:16,144.4388835
23/05/2024 12:16,140.2983518
23/05/2024 12:16,135.6326272
23/05/2024 12:16,131.7867225
23/05/2024 12:16,130.0161571
23/05/2024 12:16,130.7268599
23/05/2024 12:16,133.2111894
23/05/2024 12:16,136.0809726
23/05/2024 12:16,138.1483436
23/05/2024 12:16,139.1839093
23/05/2024 12:16,139.8014729
23/05/2024 12:16,140.5065049
23/05/2024 12:16,140.9908834
23/05/2024 12:16,140.3202881
23/05/2024 12:16,137.7506223
23/05/2024 12:16,133.6221758
23/05/2024 12:16,129.5665317
23/05/2024 12:16,127.4436626
23/05/2024 12:16,127.719539
23/05/2024 12:16,129.0020993
23/05/2024 12:16,129.3743212
23/05/2024 12:16,127.9844162
23/05/2024 12:16,125.1613813
23/05/2024 12:16,121.4551277
23/05/2024 12:16,117.2731593
23/05/2024 12:16,113.5218048
23/05/2024 12:16,111.9589309
23/05/2024 12:16,114.2039329
23/05/2024 12:16,120.098274
23/05/2024 12:16,127.1453894
23/05/2024 12:16,131.8432049
23/05/2024 12:16,131.9601717
23/05/2024 12:16,127.9307558
23/05/2024 12:16,122.3047796
23/05/2024 12:16,117.9244571
23/05/2024 12:16,116.3938735
23/05/2024 12:16,117.6910721
23/05/2024 12:16,120.6536706
23/05/2024 12:16,123.7466495
23/05/2024 12:16,125.8215543
23/05/2024 12:16,126.6681672
23/05/2024 12:16,126.9998203
23/05/2024 12:16,127.6575066
23/05/2024 12:16,128.5612613
23/05/2024 12:16,128.5306442
23/05/2024 12:16,126.4035392
23/05/2024 12:16,122.3963138
23/05/2024 12:16,118.2373058
23/05/2024 12:16,115.8699929
23/05/2024 12:16,115.9401874
23/05/2024 12:16,117.3206333
23/05/2024 12:16,117.9819314
23/05/2024 12:16,116.5443023
23/05/2024 12:16,113.3384282
23/05/2024 12:16,110.1572835
23/05/2024 12:16,108.9309692
23/05/2024 12:16,110.3565657
23/05/2024 12:16,113.4550061
23/05/2024 12:16,116.312281
23/05/2024 12:16,117.4242586
23/05/2024 12:16,116.5858335
23/05/2024 12:16,114.6660841
23/05/2024 12:16,112.585316
23/05/2024 12:16,110.4504164
23/05/2024 12:16,107.6116915
23/05/2024 12:16,103.5949074
23/05/2024 12:16,99.03091011
23/05/2024 12:16,95.60586081
23/05/2024 12:16,95.01370886
23/05/2024 12:16,98.00256464
23/05/2024 12:16,104.2849277
23/05/2024 12:16,112.7387521
23/05/2024 12:16,121.2134305
23/05/2024 12:16,126.6101519
23/05/2024 12:16,126.1735936
23/05/2024 12:16,119.3567353
23/05/2024 12:16,108.5186877
23/05/2024 12:16,97.65746448
23/05/2024 12:16,90.16591623
23/05/2024 12:16,87.31931832
23/05/2024 12:16,88.26134521
23/05/2024 12:16,91.03855836
23/05/2024 12:16,93.85355353
23/05/2024 12:16,95.82951859
23/05/2024 12:16,96.93952945
23/05/2024 12:16,97.38709741
23/05/2024 12:16,97.16876598
23/05/2024 12:16,96.23793414
23/05/2024 12:16,94.90502899
23/05/2024 12:16,93.85005818
23/05/2024 12:16,93.66942687
23/05/2024 12:16,94.51008175
23/05/2024 12:16,96.11893034
23/05/2024 12:16,97.96271909
23/05/2024 12:16,99.19136322
23/05/2024 12:16,98.87240679
23/05/2024 12:16,96.77700362
23/05/2024 12:16,94.07486369
23/05/2024 12:16,92.98714834
23/05/2024 12:16,95.33000643
23/05/2024 12:16,101.0233024
23/05/2024 12:16,107.923484
23/05/2024 12:16,113.271388
23/05/2024 12:16,115.5671727
23/05/2024 12:16,115.3389642
23/05/2024 12:16,114.3580071
23/05/2024 12:16,114.2003947
23/05/2024 12:16,115.3704384
23/05/2024 12:16,117.3431028
23/05/2024 12:16,119.0655877
23/05/2024 12:16,119.4698249
23/05/2024 12:16,117.8446262
23/05/2024 12:16,114.1276895
23/05/2024 12:16,109.0601519
23/05/2024 12:16,104.1113487
23/05/2024 12:16,101.0210778
23/05/2024 12:16,100.9131734
23/05/2024 12:16,103.4402477
23/05/2024 12:16,106.8204076
23/05/2024 12:16,108.9340525
23/05/2024 12:16,108.5797268
23/05/2024 12:16,105.9331889
23/05/2024 12:16,102.1408423
23/05/2024 12:16,98.57371414
23/05/2024 12:16,96.18211329
23/05/2024 12:16,95.16000313
23/05/2024 12:16,95.0058411
23/05/2024 12:16,94.92604633
23/05/2024 12:16,94.33670582
23/05/2024 12:16,93.12507776
23/05/2024 12:16,91.55196157
23/05/2024 12:16,89.94915997
23/05/2024 12:16,88.49988639
23/05/2024 12:16,87.22684413
23/05/2024 12:16,86.07280125
23/05/2024 12:16,85.02834348
23/05/2024 12:16,84.30228811
23/05/2024 12:16,84.338679
23/05/2024 12:16,85.52174858
23/05/2024 12:16,87.76588631
23/05/2024 12:16,90.37025017
23/05/2024 12:16,92.31717472
23/05/2024 12:16,92.88848943
23/05/2024 12:16,92.19742276
23/05/2024 12:16,91.21583672
23/05/2024 12:16,91.23194082
23/05/2024 12:16,93.04923501
23/05/2024 12:16,96.385051
23/05/2024 12:16,99.87758727
23/05/2024 12:16,101.8213806
23/05/2024 12:16,101.2817696
23/05/2024 12:16,98.80776532
23/05/2024 12:16,96.08455488
23/05/2024 12:16,94.70199381
23/05/2024 12:16,94.98656878
23/05/2024 12:16,95.88712993
23/05/2024 12:16,96.01082653
23/05/2024 12:16,94.80962624
23/05/2024 12:16,92.79641617
23/05/2024 12:16,90.77577986
23/05/2024 12:16,89.14278561
23/05/2024 12:16,87.93813504
23/05/2024 12:16,87.22841919
23/05/2024 12:16,87.20519509
23/05/2024 12:16,88.0107682
23/05/2024 12:16,89.52320125
23/05/2024 12:16,91.14762376
23/05/2024 12:16,91.84378519
23/05/2024 12:16,90.65954984
23/05/2024 12:16,87.43222869
23/05/2024 12:16,82.9950764
23/05/2024 12:16,78.74111889
23/05/2024 12:16,75.95791207
23/05/2024 12:16,75.34293054
23/05/2024 12:16,76.74099206
23/05/2024 12:16,79.23908595
23/05/2024 12:16,81.77206673
23/05/2024 12:16,83.93668744
23/05/2024 12:16,86.2929909
23/05/2024 12:16,89.77331687
23/05/2024 12:16,94.68048481
23/05/2024 12:16,100.1830524
23/05/2024 12:16,104.7819677
23/05/2024 12:16,107.3979172
23/05/2024 12:16,108.1371444
23/05/2024 12:16,108.085504
23/05/2024 12:16,108.3552067
23/05/2024 12:16,109.2327464
23/05/2024 12:16,110.0757704
23/05/2024 12:16,109.8622501
23/05/2024 12:16,107.8383826
23/05/2024 12:16,103.8479276
23/05/2024 12:16,98.38012695
23/05/2024 12:16,92.54965157
23/05/2024 12:16,87.85627831
23/05/2024 12:16,85.47866272
23/05/2024 12:16,85.48187631
23/05/2024 12:16,86.74903109
23/05/2024 12:16,87.81969831
23/05/2024 12:16,87.89168676
23/05/2024 12:16,87.21774173
23/05/2024 12:16,86.7398295
23/05/2024 12:16,87.27715379
23/05/2024 12:16,88.84131496
23/05/2024 12:16,90.587514
23/05/2024 12:16,91.4492811
23/05/2024 12:16,90.96313927
23/05/2024 12:16,89.63999986
23/05/2024 12:16,88.64806889
23/05/2024 12:16,89.2363414
23/05/2024 12:16,92.36010354
23/05/2024 12:16,98.15848636
23/05/2024 12:16,105.0940832
23/05/2024 12:16,109.951606
23/05/2024 12:16,109.6264433
23/05/2024 12:16,103.4376939
23/05/2024 12:16,93.88094571
23/05/2024 12:16,85.28439173
23/05/2024 12:16,81.452299
23/05/2024 12:16,83.71785394
23/05/2024 12:16,90.41539271
23/05/2024 12:16,98.00302538
23/05/2024 12:16,103.0409056
23/05/2024 12:16,103.7140095
23/05/2024 12:16,100.1631452
23/05/2024 12:16,94.00136444
23/05/2024 12:16,87.65443161
23/05/2024 12:16,83.67811606
23/05/2024 12:16,83.91053779
23/05/2024 12:16,88.5985799
23/05/2024 12:16,96.10250197
23/05/2024 12:16,103.6633964
23/05/2024 12:16,108.8892225
23/05/2024 12:16,110.9478942
23/05/2024 12:16,110.6504861
23/05/2024 12:16,109.5085023
23/05/2024 12:16,108.6075415
23/05/2024 12:16,108.1657706
23/05/2024 12:16,107.9133425
23/05/2024 12:16,107.6335462
23/05/2024 12:16,107.2671155
23/05/2024 12:16,106.6933915
23/05/2024 12:16,105.695858
23/05/2024 12:16,104.2740158
23/05/2024 12:16,102.8925929
23/05/2024 12:16,102.29357
23/05/2024 12:16,103.0229427
23/05/2024 12:16,105.1626242
23/05/2024 12:16,108.4527941
23/05/2024 12:16,112.4926138
23/05/2024 12:16,116.7543151
23/05/2024 12:16,120.5518555
23/05/2024 12:16,123.2306456
23/05/2024 12:16,124.5476721
23/05/2024 12:16,124.8772024
23/05/2024 12:16,124.9382603
23/05/2024 12:16,125.1962482
23/05/2024 12:16,125.4979429
23/05/2024 12:16,125.3127551
23/05/2024 12:16,124.3897138
23/05/2024 12:16,123.237942
23/05/2024 12:16,122.7912252
23/05/2024 12:16,123.2938426
23/05/2024 12:16,123.5068605
23/05/2024 12:16,121.3172333
23/05/2024 12:16,115.4762154
23/05/2024 12:16,106.942675
23/05/2024 12:16,98.45554167
23/05/2024 12:16,92.48287004
23/05/2024 12:16,89.38239608
23/05/2024 12:16,87.63358144
23/05/2024 12:16,85.92525552
23/05/2024 12:16,84.89827103
23/05/2024 12:16,86.78239307
23/05/2024 12:16,93.35660298
23/05/2024 12:16,104.1831802
23/05/2024 12:16,116.4831569
23/05/2024 12:16,126.450826
23/05/2024 12:16,130.976225
23/05/2024 12:16,128.7926125
23/05/2024 12:16,120.5976687
23/05/2024 12:16,108.343619
23/05/2024 12:16,94.46733698
23/05/2024 12:16,81.79048978
23/05/2024 12:16,73.50798887
23/05/2024 12:16,71.7562017
23/05/2024 12:16,75.44076631
23/05/2024 12:16,80.33250452
23/05/2024 12:16,81.96651012
23/05/2024 12:16,78.35158726
23/05/2024 12:16,70.44894762
23/05/2024 12:16,60.98019961
23/05/2024 12:16,52.74303658
23/05/2024 12:16,47.21949752
23/05/2024 12:16,44.10839842
23/05/2024 12:16,42.0191973
23/05/2024 12:16,39.69510432
23/05/2024 12:16,36.7764538
23/05/2024 12:16,33.78198704
23/05/2024 12:16,31.6879547
23/05/2024 12:16,31.50042651
23/05/2024 12:16,33.894986
23/05/2024 12:16,38.8950741
23/05/2024 12:16,45.64905658
23/05/2024 12:16,52.50876844
23/05/2024 12:16,57.62569194
23/05/2024 12:16,59.80923765
23/05/2024 12:16,58.95576628
23/05/2024 12:16,55.81530939
23/05/2024 12:16,51.62184261
23/05/2024 12:16,47.96110532
23/05/2024 12:16,46.4065381
23/05/2024 12:16,47.65665014
23/05/2024 12:16,50.98361462
23/05/2024 12:16,54.69139365
23/05/2024 12:16,57.05594004
23/05/2024 12:16,57.10432614
23/05/2024 12:16,55.61538984
23/05/2024 12:16,55.99793798
23/05/2024 12:16,62.72347684
23/05/2024 12:16,77.01026827
23/05/2024 12:16,93.97794096
23/05/2024 12:16,105.302307
23/05/2024 12:16,105.3527687
23/05/2024 12:16,94.87898544
23/05/2024 12:16,79.39694636
23/05/2024 12:16,64.97200266
23/05/2024 12:16,55.40599744
23/05/2024 12:16,51.86927797
23/05/2024 12:16,53.61267249
23/05/2024 12:16,58.80389406
23/05/2024 12:16,65.49298958
23/05/2024 12:16,72.41199886
23/05/2024 12:16,78.98493219
23/05/2024 12:16,84.6583841
23/05/2024 12:16,88.52849253
23/05/2024 12:16,89.9238554
23/05/2024 12:16,89.29801537
23/05/2024 12:16,88.23808993
23/05/2024 12:16,88.42190755
23/05/2024 12:16,90.58687538
23/05/2024 12:16,94.41358447
23/05/2024 12:16,99.06853433
23/05/2024 12:16,103.6718819
23/05/2024 12:16,107.4553197
23/05/2024 12:16,109.8959365
23/05/2024 12:16,111.0415317
23/05/2024 12:16,111.7584909
23/05/2024 12:16,113.4088928
23/05/2024 12:16,116.9373562
23/05/2024 12:16,122.1265445
23/05/2024 12:16,127.7634865
23/05/2024 12:16,132.5725457
23/05/2024 12:16,136.1227342
23/05/2024 12:16,138.9929272
23/05/2024 12:16,142.0723312
23/05/2024 12:16,145.694461
23/05/2024 12:16,149.5374659
23/05/2024 12:16,153.2834883
23/05/2024 12:16,156.9178041
23/05/2024 12:16,160.159201
23/05/2024 12:16,162.1011549
23/05/2024 12:16,161.9734832
23/05/2024 12:16,160.1931601
23/05/2024 12:16,158.3146676
23/05/2024 12:16,157.7906032
23/05/2024 12:16,158.7740228
23/05/2024 12:16,160.0609079
23/05/2024 12:16,160.2380396
23/05/2024 12:16,159.0587688
23/05/2024 12:16,157.8505539
23/05/2024 12:16,158.5219002
23/05/2024 12:16,161.9195181
23/05/2024 12:16,166.9295485
23/05/2024 12:16,171.1803509
23/05/2024 12:16,172.87585
23/05/2024 12:16,172.2236166
23/05/2024 12:16,171.1010288
23/05/2024 12:16,171.1933568
23/05/2024 12:16,172.4336044
23/05/2024 12:16,173.3601721
23/05/2024 12:16,172.9170752
23/05/2024 12:16,171.6118669
23/05/2024 12:16,170.8230788
23/05/2024 12:16,171.214944
23/05/2024 12:16,172.0425744
23/05/2024 12:16,172.028788
23/05/2024 12:16,170.8566624
23/05/2024 12:16,169.7436873
23/05/2024 12:16,170.5008393
23/05/2024 12:16,174.0055908
23/05/2024 12:16,179.4774718
23/05/2024 12:16,185.0018075
23/05/2024 12:16,188.7187615
23/05/2024 12:16,189.8257092
23/05/2024 12:16,188.8348706
23/05/2024 12:16,187.0260964
23/05/2024 12:16,185.543109
23/05/2024 12:16,184.8200122
23/05/2024 12:16,184.6258668
23/05/2024 12:16,184.4210013
23/05/2024 12:16,183.7338282
23/05/2024 12:16,182.5044672
23/05/2024 12:16,181.2284886
23/05/2024 12:16,180.5993862
23/05/2024 12:16,180.8468731
23/05/2024 12:16,181.4312673
23/05/2024 12:16,181.3860049
23/05/2024 12:16,180.0096295
23/05/2024 12:16,177.3915627
23/05/2024 12:16,174.3568054
23/05/2024 12:16,171.8278057
23/05/2024 12:16,170.0889255
23/05/2024 12:16,168.6285085
23/05/2024 12:16,166.7930433
23/05/2024 12:16,164.6918922
23/05/2024 12:16,163.3707824
23/05/2024 12:16,163.8921449
23/05/2024 12:16,166.2749251
23/05/2024 12:16,169.4800237
23/05/2024 12:16,172.3767756
23/05/2024 12:16,174.6051569
23/05/2024 12:16,176.5355379
23/05/2024 12:16,178.5568844
23/05/2024 12:16,180.4588766
23/05/2024 12:16,181.3939441
23/05/2024 12:16,180.3482598
23/05/2024 12:16,176.7890448
23/05/2024 12:16,171.1751891
23/05/2024 12:16,164.9458867
23/05/2024 12:16,159.792777
23/05/2024 12:16,156.710234
23/05/2024 12:16,155.5549732
23/05/2024 12:16,155.3258938
23/05/2024 12:16,154.8600979
23/05/2024 12:16,153.593233
23/05/2024 12:16,151.988335
23/05/2024 12:16,151.2082885
23/05/2024 12:16,152.1011226
23/05/2024 12:16,154.2947811
23/05/2024 12:16,156.2697884
23/05/2024 12:16,156.4687066
23/05/2024 12:16,154.4971163
23/05/2024 12:16,151.3872064
23/05/2024 12:16,148.8157631
23/05/2024 12:16,148.0838583
23/05/2024 12:16,149.6565258
23/05/2024 12:16,153.2831205
23/05/2024 12:16,158.2202059
23/05/2024 12:16,163.2846195
23/05/2024 12:16,166.9772515
23/05/2024 12:16,168.041225
23/05/2024 12:16,166.1828
23/05/2024 12:16,162.1391989
23/05/2024 12:16,156.867646
23/05/2024 12:16,150.7435495
23/05/2024 12:16,143.6127414
23/05/2024 12:16,135.4406664
23/05/2024 12:16,126.8617387
23/05/2024 12:16,119.3059623
23/05/2024 12:16,114.6001941
23/05/2024 12:16,114.1339202
23/05/2024 12:16,118.0596956
23/05/2024 12:16,125.1004214
23/05/2024 12:16,133.0684512
23/05/2024 12:16,139.7301669
23/05/2024 12:16,143.5199955
23/05/2024 12:16,143.831056
23/05/2024 12:16,141.0767331
23/05/2024 12:16,136.7312352
23/05/2024 12:16,132.9919363
23/05/2024 12:16,131.7473985
23/05/2024 12:16,133.4725862
23/05/2024 12:16,137.068229
23/05/2024 12:16,140.7514979
23/05/2024 12:16,143.1423914
23/05/2024 12:16,143.7375234
23/05/2024 12:16,142.7216217
23/05/2024 12:16,140.6374714
23/05/2024 12:16,138.1771622
23/05/2024 12:16,135.8767607
23/05/2024 12:16,133.7092071
23/05/2024 12:16,131.0325798
23/05/2024 12:16,127.1574847
23/05/2024 12:16,122.0837883
23/05/2024 12:16,116.7430981
23/05/2024 12:16,112.506408
23/05/2024 12:16,110.2435443
23/05/2024 12:16,109.6251396
23/05/2024 12:16,109.320246
23/05/2024 12:16,108.0995291
23/05/2024 12:16,106.0630994
23/05/2024 12:16,104.8840068
23/05/2024 12:16,106.5871448
23/05/2024 12:16,111.7024199
23/05/2024 12:16,118.4289204
23/05/2024 12:16,123.7017641
23/05/2024 12:16,125.4526011
23/05/2024 12:16,124.2667264
23/05/2024 12:16,122.8336904
23/05/2024 12:16,123.4362228
23/05/2024 12:16,125.8899916
23/05/2024 12:16,127.9660027
23/05/2024 12:16,127.5638819
23/05/2024 12:16,124.3062859
23/05/2024 12:16,119.4190625
23/05/2024 12:16,114.5999955
23/05/2024 12:16,111.0224744
23/05/2024 12:16,109.0113046
23/05/2024 12:16,108.272822
23/05/2024 12:16,108.3244128
23/05/2024 12:16,108.8320697
23/05/2024 12:16,109.6074275
23/05/2024 12:16,110.2477625
23/05/2024 12:16,109.862912
23/05/2024 12:16,107.4398141
23/05/2024 12:16,102.6179397
23/05/2024 12:16,96.04870276
23/05/2024 12:16,89.09784421
23/05/2024 12:16,83.38226111
23/05/2024 12:16,80.4053208
23/05/2024 12:16,81.03732838
23/05/2024 12:16,84.84965422
23/05/2024 12:16,89.9969136
23/05/2024 12:16,94.1301621
23/05/2024 12:16,95.78913539
23/05/2024 12:16,95.22315321
23/05/2024 12:16,94.05151682
23/05/2024 12:16,94.07410628
23/05/2024 12:16,96.07295657
23/05/2024 12:16,99.38024682
23/05/2024 12:16,102.4154371
23/05/2024 12:16,103.7138346
23/05/2024 12:16,102.7376557
23/05/2024 12:16,99.99561164
23/05/2024 12:16,96.52155305
23/05/2024 12:16,93.20740018
23/05/2024 12:16,90.41053731
23/05/2024 12:16,87.95344261
23/05/2024 12:16,85.44416974
23/05/2024 12:16,82.73404533
23/05/2024 12:16,80.17047101
23/05/2024 12:16,78.38171197
23/05/2024 12:16,77.77826296
23/05/2024 12:16,78.24675706
23/05/2024 12:16,79.34131872
23/05/2024 12:16,80.8000045
23/05/2024 12:16,82.85244822
23/05/2024 12:16,85.92451421
23/05/2024 12:16,89.80203395
23/05/2024 12:16,92.9676321
23/05/2024 12:16,93.12562054
23/05/2024 12:16,89.00350208
23/05/2024 12:16,81.9802435
23/05/2024 12:16,75.75518588
23/05/2024 12:16,73.91917325
23/05/2024 12:16,77.38648157
23/05/2024 12:16,83.88420306
23/05/2024 12:16,89.85389718
23/05/2024 12:16,93.01202256
23/05/2024 12:16,93.43367049
23/05/2024 12:16,92.59709594
23/05/2024 12:16,91.66207063
23/05/2024 12:16,90.69379485
23/05/2024 12:16,89.28293635
23/05/2024 12:16,87.58194536
23/05/2024 12:16,86.60236769
23/05/2024 12:16,87.47485583
23/05/2024 12:16,90.38133219
23/05/2024 12:16,94.20369989
23/05/2024 12:16,97.30706594
23/05/2024 12:16,98.74764948
23/05/2024 12:16,98.72439916
23/05/2024 12:16,97.98259338
23/05/2024 12:16,97.01604374
23/05/2024 12:16,95.8813135
23/05/2024 12:16,94.50353193
23/05/2024 12:16,92.7931
23/05/2024 12:16,90.43752327
23/05/2024 12:16,86.96043287
23/05/2024 12:16,82.32289606
23/05/2024 12:16,77.39545101
23/05/2024 12:16,73.58890789
23/05/2024 12:16,71.95830281
23/05/2024 12:16,72.61892139
23/05/2024 12:16,74.8611973
23/05/2024 12:16,77.78429854
23/05/2024 12:16,80.91211846
23/05/2024 12:16,84.21742507
23/05/2024 12:16,87.55290786
23/05/2024 12:16,90.26753055
23/05/2024 12:16,91.64998681
23/05/2024 12:16,91.76422517
23/05/2024 12:16,91.66451199
23/05/2024 12:16,92.58741988
23/05/2024 12:16,94.76068868
23/05/2024 12:16,97.00216737
23/05/2024 12:16,97.66672844
23/05/2024 12:16,96.10455407
23/05/2024 12:16,93.16058068
23/05/2024 12:16,90.35428589
23/05/2024 12:16,88.7428042
23/05/2024 12:16,88.40176141
23/05/2024 12:16,88.65369135
23/05/2024 12:16,88.68509401
23/05/2024 12:16,88.05007016
23/05/2024 12:16,86.75533682
23/05/2024 12:16,85.02774205
23/05/2024 12:16,83.16134967
23/05/2024 12:16,81.59970742
23/05/2024 12:16,80.98956637
23/05/2024 12:16,81.92582852
23/05/2024 12:16,84.51107375
23/05/2024 12:16,88.18651973
23/05/2024 12:16,92.04423717
23/05/2024 12:16,95.33174885
23/05/2024 12:16,97.79168391
23/05/2024 12:16,99.73207251
23/05/2024 12:16,101.7979357
23/05/2024 12:16,104.3913014
23/05/2024 12:16,107.1439198
23/05/2024 12:16,109.0989494
23/05/2024 12:16,109.4955669
23/05/2024 12:16,108.3351162
23/05/2024 12:16,106.3258446
23/05/2024 12:16,104.4927676
23/05/2024 12:16,103.6956172
23/05/2024 12:16,104.0935111
23/05/2024 12:16,104.9303182
23/05/2024 12:16,105.0919446
23/05/2024 12:16,104.1060482
23/05/2024 12:16,102.5489232
23/05/2024 12:16,101.3619702
23/05/2024 12:16,100.8509954
23/05/2024 12:16,100.4953296
23/05/2024 12:16,99.67866283
23/05/2024 12:16,98.41829553
23/05/2024 12:16,97.28102367
23/05/2024 12:16,96.63498904
23/05/2024 12:16,96.07425836
23/05/2024 12:16,94.68376937
23/05/2024 12:16,92.02251073
23/05/2024 12:16,89.05796184
23/05/2024 12:16,88.17024109
23/05/2024 12:16,91.67754461
23/05/2024 12:16,99.58769957
23/05/2024 12:16,108.6794262
23/05/2024 12:16,114.273296
23/05/2024 12:16,113.4352456
23/05/2024 12:16,106.9310566
23/05/2024 12:16,98.50306511
23/05/2024 12:16,92.33247702
23/05/2024 12:16,90.63197934
23/05/2024 12:16,92.82053539
23/05/2024 12:16,96.46974134
23/05/2024 12:16,99.12451685
23/05/2024 12:16,99.70112698
23/05/2024 12:16,98.57275731
23/05/2024 12:16,96.59513008
23/05/2024 12:16,94.20693128
23/05/2024 12:16,91.4290926
23/05/2024 12:16,88.50126731
23/05/2024 12:16,86.27284323
23/05/2024 12:16,85.88720153
23/05/2024 12:16,88.02937859
23/05/2024 12:16,92.42223112
23/05/2024 12:16,97.99321637
23/05/2024 12:16,103.4116965
23/05/2024 12:16,107.4807601
23/05/2024 12:16,109.3028453
23/05/2024 12:16,108.4454567
23/05/2024 12:16,105.1816039
23/05/2024 12:16,100.5926721
23/05/2024 12:16,96.36740587
23/05/2024 12:16,94.29204654
23/05/2024 12:16,95.54028759
23/05/2024 12:16,100.0034358
23/05/2024 12:16,106.1240582
23/05/2024 12:16,111.6425598
23/05/2024 12:16,114.9342631
23/05/2024 12:16,115.8875309
23/05/2024 12:16,115.6106646
23/05/2024 12:16,115.3176595
23/05/2024 12:16,115.4292552
23/05/2024 12:16,115.5652733
23/05/2024 12:16,115.2455645
23/05/2024 12:16,114.5531387
23/05/2024 12:16,114.1379804
23/05/2024 12:16,114.6543359
23/05/2024 12:16,116.2248324
23/05/2024 12:16,118.3832035
23/05/2024 12:16,120.4779898
23/05/2024 12:16,122.1383656
23/05/2024 12:16,123.3663214
23/05/2024 12:16,124.1277202
23/05/2024 12:16,123.8681987
23/05/2024 12:16,121.6050315
23/05/2024 12:16,116.710717
23/05/2024 12:16,109.7621721
23/05/2024 12:16,102.5942913
23/05/2024 12:16,97.26276314
23/05/2024 12:16,94.70523217
23/05/2024 12:16,94.30294249
23/05/2024 12:16,94.71315142
23/05/2024 12:16,95.1201247
23/05/2024 12:16,95.77309779
23/05/2024 12:16,97.45853842
23/05/2024 12:16,100.5363695
23/05/2024 12:16,104.5200355
23/05/2024 12:16,108.4794463
23/05/2024 12:16,111.6424741
23/05/2024 12:16,113.6047132
23/05/2024 12:16,114.1437587
23/05/2024 12:16,112.970145
23/05/2024 12:16,109.7487869
23/05/2024 12:16,104.4531497
23/05/2024 12:16,97.60874205
23/05/2024 12:16,89.98344616
23/05/2024 12:16,82.083912
23/05/2024 12:16,74.19196764
23/05/2024 12:16,66.93893376
23/05/2024 12:16,61.58791124
23/05/2024 12:16,59.41026535
23/05/2024 12:16,60.60481046
23/05/2024 12:16,63.82263302
23/05/2024 12:16,66.84625894
23/05/2024 12:16,67.86674705
23/05/2024 12:16,66.27476812
23/05/2024 12:16,62.46218019
23/05/2024 12:16,57.08239672
23/05/2024 12:16,50.55560707
23/05/2024 12:16,43.16815889
23/05/2024 12:16,35.43463117
23/05/2024 12:16,28.22659217
23/05/2024 12:16,22.57924686
23/05/2024 12:16,19.38729188
23/05/2024 12:16,19.0690308
23/05/2024 12:16,21.24081579
23/05/2024 12:16,24.62779423
23/05/2024 12:16,27.39152896
23/05/2024 12:16,27.8767649
23/05/2024 12:16,25.445035
23/05/2024 12:16,20.66468951
23/05/2024 12:16,14.65696481
23/05/2024 12:16,8.426084686
23/05/2024 12:16,2.831082144
23/05/2024 12:16,-1.253232064
23/05/2024 12:16,-3.19691023
23/05/2024 12:16,-2.959740152
23/05/2024 12:16,-0.902618889
23/05/2024 12:16,2.697778976
23/05/2024 12:16,7.709628266
23/05/2024 12:16,13.72174526
23/05/2024 12:16,19.86220121
23/05/2024 12:16,25.17392067
23/05/2024 12:16,29.07646163
23/05/2024 12:16,31.54184555
23/05/2024 12:16,33.11635269
23/05/2024 12:16,34.81826879
23/05/2024 12:16,37.61212934
23/05/2024 12:16,41.59972425
23/05/2024 12:16,45.80168272
23/05/2024 12:16,49.00750793
23/05/2024 12:16,50.91585624
23/05/2024 12:16,52.31223356
23/05/2024 12:16,54.08337783
23/05/2024 12:16,56.20131043
23/05/2024 12:16,57.87147866
23/05/2024 12:16,58.76803703
23/05/2024 12:16,59.93652669
23/05/2024 12:16,63.10147572
23/05/2024 12:16,68.90259621
23/05/2024 12:16,75.95700668
23/05/2024 12:16,81.81932304
23/05/2024 12:16,84.83599148
23/05/2024 12:16,85.18303008
23/05/2024 12:16,84.551063
23/05/2024 12:16,85.02482772
23/05/2024 12:16,87.90076463
23/05/2024 12:16,93.06199684
23/05/2024 12:16,99.28019483
23/05/2024 12:16,105.1837977
23/05/2024 12:16,110.0624849
23/05/2024 12:16,113.9320718
23/05/2024 12:16,117.0879153
23/05/2024 12:16,119.7988004
23/05/2024 12:16,122.455393
23/05/2024 12:16,125.861747
23/05/2024 12:16,131.0898393
23/05/2024 12:16,138.6381109
23/05/2024 12:16,147.5050972
23/05/2024 12:16,155.2834418
23/05/2024 12:16,159.5164372
23/05/2024 12:16,159.2763911
23/05/2024 12:16,155.7402235
23/05/2024 12:16,151.4545462
23/05/2024 12:16,148.9216024
23/05/2024 12:16,149.3614977
23/05/2024 12:16,152.2743972
23/05/2024 12:16,155.9591076
23/05/2024 12:16,158.6137053
23/05/2024 12:16,159.3404767
23/05/2024 12:16,158.4504072
23/05/2024 12:16,157.0589199
23/05/2024 12:16,156.3809534
23/05/2024 12:16,157.1249831
23/05/2024 12:16,159.2126526
23/05/2024 12:16,161.8582319
23/05/2024 12:16,163.9509331
23/05/2024 12:16,164.6104927
23/05/2024 12:16,163.7037329
23/05/2024 12:16,162.0116872
23/05/2024 12:16,160.7965828
23/05/2024 12:16,160.9555141
23/05/2024 12:16,162.4206273
23/05/2024 12:16,164.3610315
23/05/2024 12:16,165.9729965
23/05/2024 12:16,167.0559755
23/05/2024 12:16,167.9988817
23/05/2024 12:16,169.4605975
23/05/2024 12:16,172.0523858
23/05/2024 12:16,176.047652
23/05/2024 12:16,181.1315995
23/05/2024 12:16,186.3660282
23/05/2024 12:16,190.537755
23/05/2024 12:16,192.8009965
23/05/2024 12:16,193.2107868
23/05/2024 12:16,192.6922431
23/05/2024 12:16,192.402714
23/05/2024 12:16,192.9646055
23/05/2024 12:16,194.1421578
23/05/2024 12:16,195.0922964
23/05/2024 12:16,194.8807755
23/05/2024 12:16,193.0109923
23/05/2024 12:16,189.7707099
23/05/2024 12:16,186.0988702
23/05/2024 12:16,183.0118579
23/05/2024 12:16,181.0901299
23/05/2024 12:16,180.2511972
23/05/2024 12:16,179.5377706
23/05/2024 12:16,177.1345058
23/05/2024 12:16,171.328501
23/05/2024 12:16,162.1025041
23/05/2024 12:16,151.8053932
23/05/2024 12:16,143.9231206
23/05/2024 12:16,140.811756
23/05/2024 12:16,142.2287863
23/05/2024 12:16,145.6937142
23/05/2024 12:16,148.2326289
23/05/2024 12:16,148.1205758
23/05/2024 12:16,145.4486866
23/05/2024 12:16,141.3490345
23/05/2024 12:16,136.7462764
23/05/2024 12:16,131.8819766
23/05/2024 12:16,126.9721064
23/05/2024 12:16,123.0261569
23/05/2024 12:16,121.6627695
23/05/2024 12:16,123.9333472
23/05/2024 12:16,129.3244992
23/05/2024 12:16,135.9168812
23/05/2024 12:16,141.590166
23/05/2024 12:16,145.2935533
23/05/2024 12:16,147.3415267
23/05/2024 12:16,148.6200006
23/05/2024 12:16,149.6848224
23/05/2024 12:16,150.6369197
23/05/2024 12:16,151.5269167
23/05/2024 12:16,152.5031149
23/05/2024 12:16,153.5966512
23/05/2024 12:16,154.6659715
23/05/2024 12:16,155.7189627
23/05/2024 12:16,157.1171138
23/05/2024 12:16,159.1407779
23/05/2024 12:16,161.2650562
23/05/2024 12:16,162.0850122
23/05/2024 12:16,160.2442075
23/05/2024 12:16,155.675755
23/05/2024 12:16,150.0701445
23/05/2024 12:16,146.0530113
23/05/2024 12:16,145.5500651
23/05/2024 12:16,148.5428772
23/05/2024 12:16,153.1880178
23/05/2024 12:16,157.1620363
23/05/2024 12:16,159.1116204
23/05/2024 12:16,159.0542186
23/05/2024 12:16,157.6178671
23/05/2024 12:16,155.1421106
23/05/2024 12:16,151.5752358
23/05/2024 12:16,147.0442579
23/05/2024 12:16,142.2678957
23/05/2024 12:16,138.315951
23/05/2024 12:16,135.9337148
23/05/2024 12:16,135.0029529
23/05/2024 12:16,134.5387202
23/05/2024 12:16,133.2038856
23/05/2024 12:16,130.0620767
23/05/2024 12:16,125.2598529
23/05/2024 12:16,120.2050818
23/05/2024 12:16,116.9349434
23/05/2024 12:16,116.9410869
23/05/2024 12:16,120.2670446
23/05/2024 12:16,125.5232092
23/05/2024 12:16,130.7182179
23/05/2024 12:16,134.3651327
23/05/2024 12:16,136.219242
23/05/2024 12:16,137.0901804
23/05/2024 12:16,137.7731855
23/05/2024 12:16,138.0174505
23/05/2024 12:16,136.6159473
23/05/2024 12:16,132.6437073
23/05/2024 12:16,126.660903
23/05/2024 12:16,120.6809398
23/05/2024 12:16,116.8561574
23/05/2024 12:16,116.0385808
23/05/2024 12:16,117.4173542
23/05/2024 12:16,119.3649647
23/05/2024 12:16,120.592264
23/05/2024 12:16,120.6853641
23/05/2024 12:16,119.8562616
23/05/2024 12:16,118.330378
23/05/2024 12:16,115.9094356
23/05/2024 12:16,112.1477174
23/05/2024 12:16,107.0889655
23/05/2024 12:16,101.8638325
23/05/2024 12:16,98.31960942
23/05/2024 12:16,97.77121853
23/05/2024 12:16,99.95675553
23/05/2024 12:16,103.0999767
23/05/2024 12:16,105.0097323
23/05/2024 12:16,104.4361776
23/05/2024 12:16,101.8377593
23/05/2024 12:16,99.12009241
23/05/2024 12:16,98.49786267
23/05/2024 12:16,101.1443848
23/05/2024 12:16,106.3436502
23/05/2024 12:16,111.6746968
23/05/2024 12:16,114.3697593
23/05/2024 12:16,113.1050095
23/05/2024 12:16,108.8889268
23/05/2024 12:16,104.3494804
23/05/2024 12:16,102.0185047
23/05/2024 12:16,102.9080748
23/05/2024 12:16,106.1875075
23/05/2024 12:16,109.961669
23/05/2024 12:16,112.4861007
23/05/2024 12:16,112.9945188
23/05/2024 12:16,111.7344115
23/05/2024 12:16,109.4873873
23/05/2024 12:16,107.1470595
23/05/2024 12:16,105.5413982
23/05/2024 12:16,105.2477957
23/05/2024 12:16,106.3347821
23/05/2024 12:16,108.2910212
23/05/2024 12:16,110.2849121
23/05/2024 12:16,111.5671597
23/05/2024 12:16,111.7645931
23/05/2024 12:16,110.9406309
23/05/2024 12:16,109.3376158
23/05/2024 12:16,107.1180902
23/05/2024 12:16,104.3462921
23/05/2024 12:16,101.2760263
23/05/2024 12:16,98.49217501
23/05/2024 12:16,96.71133006
23/05/2024 12:16,96.29390749
23/05/2024 12:16,97.05176648
23/05/2024 12:16,98.62252246
23/05/2024 12:16,101.0191307
23/05/2024 12:16,104.6105369
23/05/2024 12:16,109.4383931
23/05/2024 12:16,114.6959231
23/05/2024 12:16,118.8570306
23/05/2024 12:16,120.459939
23/05/2024 12:16,118.9478206
23/05/2024 12:16,115.1245349
23/05/2024 12:16,110.784073
23/05/2024 12:16,107.8294975
23/05/2024 12:16,107.4127306
23/05/2024 12:16,109.8345561
23/05/2024 12:16,115.0254405
23/05/2024 12:16,122.6111292
23/05/2024 12:16,131.1759419
23/05/2024 12:16,137.9505722
23/05/2024 12:16,140.0633308
23/05/2024 12:16,136.4914694
23/05/2024 12:16,128.806548
23/05/2024 12:16,120.1045448
23/05/2024 12:16,113.1905506
23/05/2024 12:16,109.3011598
23/05/2024 12:16,107.9112167
23/05/2024 12:16,107.5272376
23/05/2024 12:16,106.9468935
23/05/2024 12:16,106.1490552
23/05/2024 12:16,106.0828941
23/05/2024 12:16,107.5048989
23/05/2024 12:16,109.963341
23/05/2024 12:16,111.9771813
23/05/2024 12:16,112.2292754
23/05/2024 12:16,110.5378756
23/05/2024 12:16,107.7780804
23/05/2024 12:16,105.1099031
23/05/2024 12:16,103.3234443
23/05/2024 12:16,102.6506187
23/05/2024 12:16,102.8508499
23/05/2024 12:16,103.3635009
23/05/2024 12:16,103.5076443
23/05/2024 12:16,102.7757614
23/05/2024 12:16,101.144692
23/05/2024 12:16,99.19333084
23/05/2024 12:16,97.88608517
23/05/2024 12:16,98.06916949
23/05/2024 12:16,99.87429161
23/05/2024 12:16,102.372492
23/05/2024 12:16,103.871667
23/05/2024 12:16,102.9475127
23/05/2024 12:16,99.60599848
23/05/2024 12:16,95.56671608
23/05/2024 12:16,93.19985769
23/05/2024 12:16,93.86611228
23/05/2024 12:16,97.07799643
23/05/2024 12:16,101.1520786
23/05/2024 12:16,104.6075922
23/05/2024 12:16,107.0095922
23/05/2024 12:16,108.6989288
23/05/2024 12:16,110.0266967
23/05/2024 12:16,110.9950697
23/05/2024 12:16,111.5140433
23/05/2024 12:16,111.7964422
23/05/2024 12:16,112.3218695
23/05/2024 12:16,113.2494261
23/05/2024 12:16,113.7413008
23/05/2024 12:16,112.0389285
23/05/2024 12:16,106.6665065
23/05/2024 12:16,97.84970327
23/05/2024 12:16,87.74151676
23/05/2024 12:16,79.16974597
23/05/2024 12:16,74.02413689
23/05/2024 12:16,72.584855
23/05/2024 12:16,74.00994861
23/05/2024 12:16,77.21436875
23/05/2024 12:16,81.40182684
23/05/2024 12:16,86.16986061
23/05/2024 12:16,91.39874622
23/05/2024 12:16,97.00459539
23/05/2024 12:16,102.7156763
23/05/2024 12:16,108.0380835
23/05/2024 12:16,112.3082984
23/05/2024 12:16,114.7802605
23/05/2024 12:16,114.9117954
23/05/2024 12:16,112.8015909
23/05/2024 12:16,109.3067013
23/05/2024 12:16,105.6053037
23/05/2024 12:16,102.5846566
23/05/2024 12:16,100.5768455
23/05/2024 12:16,99.58258667
23/05/2024 12:16,99.60264764
23/05/2024 12:16,100.6583042
23/05/2024 12:16,102.5806791
23/05/2024 12:16,104.8563933
23/05/2024 12:16,106.6795764
23/05/2024 12:16,107.3137962
23/05/2024 12:16,106.6894623
23/05/2024 12:16,105.682372
23/05/2024 12:16,105.4793871
23/05/2024 12:16,106.294819
23/05/2024 12:16,106.8775717
23/05/2024 12:16,106.1953473
23/05/2024 12:16,106.0074579
23/05/2024 12:16,110.5379556
23/05/2024 12:16,122.5297478
23/05/2024 12:16,139.7517069
23/05/2024 12:16,155.8092587
23/05/2024 12:16,164.2744837
23/05/2024 12:16,162.3166214
23/05/2024 12:16,151.5509208
23/05/2024 12:16,136.7047693
23/05/2024 12:16,123.4925948
23/05/2024 12:16,116.2430046
23/05/2024 12:16,115.7420787
23/05/2024 12:16,118.7521148
23/05/2024 12:16,120.3598103
23/05/2024 12:16,117.7477588
23/05/2024 12:16,112.1390048
23/05/2024 12:16,107.2605399
23/05/2024 12:16,106.0798361
23/05/2024 12:16,108.8883061
23/05/2024 12:16,113.8267326
23/05/2024 12:16,118.5182869
23/05/2024 12:16,121.2500591
23/05/2024 12:16,121.4477467
23/05/2024 12:16,119.8043741
23/05/2024 12:16,118.0252975
23/05/2024 12:16,117.9933147
23/05/2024 12:16,120.6540801
23/05/2024 12:16,125.3744331
23/05/2024 12:16,130.3210316
23/05/2024 12:16,133.6208139
23/05/2024 12:16,134.4513498
23/05/2024 12:16,133.2829699
23/05/2024 12:16,131.2771651
23/05/2024 12:16,129.4925204
23/05/2024 12:16,128.3761798
23/05/2024 12:16,127.6177808
23/05/2024 12:16,126.3864274
23/05/2024 12:16,123.9448062
23/05/2024 12:16,120.2944405
23/05/2024 12:16,116.2701699
23/05/2024 12:16,112.9393586
23/05/2024 12:16,110.8645066
23/05/2024 12:16,109.9285936
23/05/2024 12:16,109.7945183
23/05/2024 12:16,110.4402304
23/05/2024 12:16,112.2301529
23/05/2024 12:16,115.381797
23/05/2024 12:16,119.2205981
23/05/2024 12:16,122.0545701
23/05/2024 12:16,122.121989
23/05/2024 12:16,118.9769871
23/05/2024 12:16,114.067996
23/05/2024 12:16,109.9421274
23/05/2024 12:16,108.7015386
23/05/2024 12:16,110.858913
23/05/2024 12:16,115.3089185
23/05/2024 12:16,120.2233519
23/05/2024 12:16,124.086161
23/05/2024 12:16,126.320913
23/05/2024 12:16,127.4578614
23/05/2024 12:16,128.7293603
23/05/2024 12:16,130.7821436
23/05/2024 12:16,132.210706
23/05/2024 12:16,129.7711167
23/05/2024 12:16,120.8879029
23/05/2024 12:16,106.4124686
23/05/2024 12:16,90.94714439
23/05/2024 12:16,80.19230848
23/05/2024 12:16,77.3366475
23/05/2024 12:16,81.14521716
23/05/2024 12:16,86.96014323
23/05/2024 12:16,89.88539831
23/05/2024 12:16,88.13230521
23/05/2024 12:16,84.25815957
23/05/2024 12:16,82.56718313
23/05/2024 12:16,84.55126072
23/05/2024 12:16,87.18498537
23/05/2024 12:16,85.79385514
23/05/2024 12:16,78.09614571
23/05/2024 12:16,65.77860509
23/05/2024 12:16,53.18571177
23/05/2024 12:16,44.7288325
23/05/2024 12:16,42.70000582
23/05/2024 12:16,46.53292331
23/05/2024 12:16,53.62648538
23/05/2024 12:16,60.92369205
23/05/2024 12:16,66.1014714
23/05/2024 12:16,67.92106548
23/05/2024 12:16,66.23952504
23/05/2024 12:16,62.13059445
23/05/2024 12:16,57.77878099
23/05/2024 12:16,55.54581902
23/05/2024 12:16,56.51063306
23/05/2024 12:16,59.79878165
23/05/2024 12:16,63.48251836
23/05/2024 12:16,66.21066829
23/05/2024 12:16,68.03536994
23/05/2024 12:16,69.86652213
23/05/2024 12:16,72.27807842
23/05/2024 12:16,74.71290458
23/05/2024 12:16,75.66041011
23/05/2024 12:16,73.68303341
23/05/2024 12:16,68.64112012
23/05/2024 12:16,62.31560887
23/05/2024 12:16,57.85177333
23/05/2024 12:16,58.04718745
23/05/2024 12:16,63.50577876
23/05/2024 12:16,72.45945957
23/05/2024 12:16,82.57130019
23/05/2024 12:16,92.31398327
23/05/2024 12:16,100.4795684
23/05/2024 12:16,105.6025059
23/05/2024 12:16,106.5919649
23/05/2024 12:16,103.4842981
23/05/2024 12:16,97.48808563
23/05/2024 12:16,90.66159192
23/05/2024 12:16,85.31733881
23/05/2024 12:16,82.99572394
23/05/2024 12:16,83.56526052
23/05/2024 12:16,85.3696599
23/05/2024 12:16,86.524957
23/05/2024 12:16,86.24139117
23/05/2024 12:16,85.04514938
23/05/2024 12:16,84.05202837
23/05/2024 12:16,84.20493488
23/05/2024 12:16,85.93460028
23/05/2024 12:16,89.07942873
23/05/2024 12:16,92.95152919
23/05/2024 12:16,96.62827053
23/05/2024 12:16,99.3938996
23/05/2024 12:16,101.0813826
23/05/2024 12:16,102.0910309
23/05/2024 12:16,103.0953381
23/05/2024 12:16,104.6872335
23/05/2024 12:16,107.1398225
23/05/2024 12:16,110.3051453
23/05/2024 12:16,113.7738293
23/05/2024 12:16,117.3207789
23/05/2024 12:16,121.1551446
23/05/2024 12:16,125.526751
23/05/2024 12:16,130.1599838
23/05/2024 12:16,134.3103023
23/05/2024 12:16,137.3362744
23/05/2024 12:16,139.0248996
23/05/2024 12:16,139.3782689
23/05/2024 12:16,138.2954171
23/05/2024 12:16,135.5954573
23/05/2024 12:16,131.3717271
23/05/2024 12:16,126.3548603
23/05/2024 12:16,121.9478402
23/05/2024 12:16,119.7618026
23/05/2024 12:16,120.774195
23/05/2024 12:16,124.648958
23/05/2024 12:16,129.8980583
23/05/2024 12:16,134.9325962
23/05/2024 12:16,139.0727575
23/05/2024 12:16,142.4231828
23/05/2024 12:16,144.8082829
23/05/2024 12:16,145.222582
23/05/2024 12:16,142.6613731
23/05/2024 12:16,137.4801864
23/05/2024 12:16,131.768961
23/05/2024 12:16,128.2802847
23/05/2024 12:16,128.8356334
23/05/2024 12:16,133.3128646
23/05/2024 12:16,139.7139521
23/05/2024 12:16,145.1968606
23/05/2024 12:16,147.5386013
23/05/2024 12:16,146.1733038
23/05/2024 12:16,142.1546245
23/05/2024 12:16,137.2805508
23/05/2024 12:16,133.2124209
23/05/2024 12:16,131.077033
23/05/2024 12:16,131.3760281
23/05/2024 12:16,133.8565433
23/05/2024 12:16,137.4314896
23/05/2024 12:16,140.5678748
23/05/2024 12:16,142.1918089
23/05/2024 12:16,142.3944691
23/05/2024 12:16,142.1775038
23/05/2024 12:16,142.4932251
23/05/2024 12:16,143.5628714
23/05/2024 12:16,144.9521767
23/05/2024 12:16,146.0494643
23/05/2024 12:16,146.457502
23/05/2024 12:16,146.1928908
23/05/2024 12:16,145.6876269
23/05/2024 12:16,145.4936053
23/05/2024 12:16,145.7847211
23/05/2024 12:16,146.0848679
23/05/2024 12:16,145.5834568
23/05/2024 12:16,143.825554
23/05/2024 12:16,141.1580635
23/05/2024 12:16,138.5968036
23/05/2024 12:16,137.2615314
23/05/2024 12:16,137.6856965
23/05/2024 12:16,139.3368518
23/05/2024 12:16,140.8112498
23/05/2024 12:16,140.8853362
23/05/2024 12:16,139.749999
23/05/2024 12:16,139.2332387
23/05/2024 12:16,141.4314867
23/05/2024 12:16,146.6239861
23/05/2024 12:16,152.3757978
23/05/2024 12:16,155.0975384
23/05/2024 12:16,153.0971525
23/05/2024 12:16,148.1568776
23/05/2024 12:16,143.7541529
23/05/2024 12:16,141.7960235
23/05/2024 12:16,141.3167528
23/05/2024 12:16,140.0854543
23/05/2024 12:16,137.0836904
23/05/2024 12:16,133.5290368
23/05/2024 12:16,131.8015483
23/05/2024 12:16,133.358111
23/05/2024 12:16,137.488852
23/05/2024 12:16,141.9433479
23/05/2024 12:16,144.7434154
23/05/2024 12:16,145.5219037
23/05/2024 12:16,145.2571983
23/05/2024 12:16,144.8740964
23/05/2024 12:16,144.2773136
23/05/2024 12:16,142.7910848
23/05/2024 12:16,140.3015786
23/05/2024 12:16,137.6370838
23/05/2024 12:16,135.7863881
23/05/2024 12:16,134.9709429
23/05/2024 12:16,134.6252452
23/05/2024 12:16,134.1846731
23/05/2024 12:16,133.654949
23/05/2024 12:16,133.3500869
23/05/2024 12:16,133.2934266
23/05/2024 12:16,133.0641015
23/05/2024 12:16,132.1203881
23/05/2024 12:16,130.1428782
23/05/2024 12:16,127.2465974
23/05/2024 12:16,124.0296498
23/05/2024 12:16,121.2569697
23/05/2024 12:16,119.3484104
23/05/2024 12:16,118.287822
23/05/2024 12:16,118.1245416
23/05/2024 12:16,119.3132155
23/05/2024 12:16,122.2541809
23/05/2024 12:16,126.527201
23/05/2024 12:16,130.7896757
23/05/2024 12:16,133.509986
23/05/2024 12:16,133.8093513
23/05/2024 12:16,131.8373085
23/05/2024 12:16,128.7404989
23/05/2024 12:16,126.3451924
23/05/2024 12:16,126.4126765
23/05/2024 12:16,129.5216102
23/05/2024 12:16,134.3120447
23/05/2024 12:16,137.9833343
23/05/2024 12:16,137.9348035
23/05/2024 12:16,133.4074246
23/05/2024 12:16,126.0147288
23/05/2024 12:16,118.862948
23/05/2024 12:16,114.8254663
23/05/2024 12:16,114.976054
23/05/2024 12:16,118.0958394
23/05/2024 12:16,121.5592483
23/05/2024 12:16,123.0354036
23/05/2024 12:16,121.820122
23/05/2024 12:16,118.8798781
23/05/2024 12:16,115.8482017
23/05/2024 12:16,113.9542029
23/05/2024 12:16,113.5483461
23/05/2024 12:16,114.2854804
23/05/2024 12:16,115.648317
23/05/2024 12:16,117.32891
23/05/2024 12:16,119.1723274
23/05/2024 12:16,120.9167735
23/05/2024 12:16,122.1627633
23/05/2024 12:16,122.5520958
23/05/2024 12:16,121.8829852
23/05/2024 12:16,120.1179505
23/05/2024 12:16,117.3955735
23/05/2024 12:16,114.0572674
23/05/2024 12:16,110.6304582
23/05/2024 12:16,107.7635714
23/05/2024 12:16,106.0883428
23/05/2024 12:16,105.989221
23/05/2024 12:16,107.3087838
23/05/2024 12:16,109.2391212
23/05/2024 12:16,110.5333961
23/05/2024 12:16,110.1598902
23/05/2024 12:16,108.0163626
23/05/2024 12:16,105.1882836
23/05/2024 12:16,103.4635422
23/05/2024 12:16,104.3246363
23/05/2024 12:16,107.9915249
23/05/2024 12:16,113.1385053
23/05/2024 12:16,117.5675724
23/05/2024 12:16,119.4904723
23/05/2024 12:16,118.6161593
23/05/2024 12:16,116.3044186
23/05/2024 12:16,114.6117505
23/05/2024 12:16,114.925123
23/05/2024 12:16,117.2589914
23/05/2024 12:16,120.5514421
23/05/2024 12:16,123.3057673
23/05/2024 12:16,124.0779984
23/05/2024 12:16,121.9668803
23/05/2024 12:16,117.1394363
23/05/2024 12:16,110.9793935
23/05/2024 12:16,105.4986831
23/05/2024 12:16,102.2967754
23/05/2024 12:16,101.5891924
23/05/2024 12:16,101.9916423
23/05/2024 12:16,101.2930903
23/05/2024 12:16,97.97982839
23/05/2024 12:16,92.63131978
23/05/2024 12:16,87.95660244
23/05/2024 12:16,87.00485332
23/05/2024 12:16,90.82767204
23/05/2024 12:16,97.61909872
23/05/2024 12:16,104.0062518
23/05/2024 12:16,107.2442324
23/05/2024 12:16,106.5848514
23/05/2024 12:16,103.1643361
23/05/2024 12:16,98.94746825
23/05/2024 12:16,95.63364419
23/05/2024 12:16,94.06714518
23/05/2024 12:16,94.21333451
23/05/2024 12:16,95.5454818
23/05/2024 12:16,97.52745836
23/05/2024 12:16,99.81080484
23/05/2024 12:16,102.0832365
23/05/2024 12:16,103.8663226
23/05/2024 12:16,104.5596513
23/05/2024 12:16,103.7073227
23/05/2024 12:16,101.2791326
23/05/2024 12:16,97.82014374
23/05/2024 12:16,94.34228269
23/05/2024 12:16,91.90881533
23/05/2024 12:16,91.09167249
23/05/2024 12:16,91.67446797
23/05/2024 12:16,92.84207923
23/05/2024 12:16,93.69933915
23/05/2024 12:16,93.73330815
23/05/2024 12:16,92.94181791
23/05/2024 12:16,91.62960676
23/05/2024 12:16,90.12603073
23/05/2024 12:16,88.79762093
23/05/2024 12:16,88.37871322
23/05/2024 12:16,89.84359143
23/05/2024 12:16,93.32036069
23/05/2024 12:16,97.13153629
23/05/2024 12:16,98.44979023
23/05/2024 12:16,95.34851637
23/05/2024 12:16,88.43129587
23/05/2024 12:16,80.57412203
23/05/2024 12:16,75.03472768
23/05/2024 12:16,73.51610731
23/05/2024 12:16,75.67084624
23/05/2024 12:16,80.13509205
23/05/2024 12:16,85.78620507
23/05/2024 12:16,91.9746255
23/05/2024 12:16,97.86905551
23/05/2024 12:16,102.1187913
23/05/2024 12:16,103.5376945
23/05/2024 12:16,102.2279822
23/05/2024 12:16,99.92380232
23/05/2024 12:16,98.89506824
23/05/2024 12:16,100.1940317
23/05/2024 12:16,102.9137066
23/05/2024 12:16,105.2566035
23/05/2024 12:16,106.3021918
23/05/2024 12:16,106.6075435
23/05/2024 12:16,107.1539682
23/05/2024 12:16,107.9725331
23/05/2024 12:16,107.985204
23/05/2024 12:16,106.1703662
23/05/2024 12:16,102.7176229
23/05/2024 12:16,98.99482438
23/05/2024 12:16,96.50173099
23/05/2024 12:16,95.8988993
23/05/2024 12:16,96.86140063
23/05/2024 12:16,98.5826031
23/05/2024 12:16,100.3249912
23/05/2024 12:16,101.6654194
23/05/2024 12:16,102.5042471
23/05/2024 12:16,103.0367357
23/05/2024 12:16,103.6842162
23/05/2024 12:16,104.8684614
23/05/2024 12:16,106.6572959
23/05/2024 12:16,108.5263964
23/05/2024 12:16,109.5063944
23/05/2024 12:16,108.7207171
23/05/2024 12:16,105.9940673
23/05/2024 12:16,102.0906612
23/05/2024 12:16,98.38263305
23/05/2024 12:16,96.17305187
23/05/2024 12:16,96.07138726
23/05/2024 12:16,97.70024398
23/05/2024 12:16,99.79691936
23/05/2024 12:16,100.7236135
23/05/2024 12:16,99.3229506
23/05/2024 12:16,95.69153334
23/05/2024 12:16,91.317181
23/05/2024 12:16,88.42452793
23/05/2024 12:16,88.83877439
23/05/2024 12:16,92.95359679
23/05/2024 12:16,99.37897132
23/05/2024 12:16,105.5648455
23/05/2024 12:16,109.1218031
23/05/2024 12:16,109.1066001
23/05/2024 12:16,106.4505223
23/05/2024 12:16,103.2114663
23/05/2024 12:16,101.2857494
23/05/2024 12:16,101.5509847
23/05/2024 12:16,103.7117461
23/05/2024 12:16,106.5503565
23/05/2024 12:16,108.4649348
23/05/2024 12:16,108.2895728
23/05/2024 12:16,105.9924166
23/05/2024 12:16,102.7514706
23/05/2024 12:16,100.3296449
23/05/2024 12:16,100.1135668
23/05/2024 12:16,102.379511
23/05/2024 12:16,106.1911579
23/05/2024 12:16,109.9362145
23/05/2024 12:16,112.1890472
23/05/2024 12:16,112.4152292
23/05/2024 12:16,111.0930983
23/05/2024 12:16,109.1614271
23/05/2024 12:16,107.2445112
23/05/2024 12:16,105.3372562
23/05/2024 12:16,103.1455414
23/05/2024 12:16,100.6149143
23/05/2024 12:16,98.07590047
23/05/2024 12:16,95.94173463
23/05/2024 12:16,94.36517617
23/05/2024 12:16,93.2026345
23/05/2024 12:16,92.32155786
23/05/2024 12:16,92.00580662
23/05/2024 12:16,93.09530359
23/05/2024 12:16,96.64825477
23/05/2024 12:16,103.290642
23/05/2024 12:16,112.6287288
23/05/2024 12:16,122.9592013
23/05/2024 12:16,131.4592189
23/05/2024 12:16,135.1332152
23/05/2024 12:16,132.198853
23/05/2024 12:16,123.062386
23/05/2024 12:16,110.127854
23/05/2024 12:16,96.4944452
23/05/2024 12:16,84.32670449
23/05/2024 12:16,73.90903671
23/05/2024 12:16,63.99490031
23/05/2024 12:16,53.18573262
23/05/2024 12:16,41.30425762
23/05/2024 12:16,29.71639747
23/05/2024 12:16,20.40241389
23/05/2024 12:16,14.59917641
23/05/2024 12:16,12.14970295
23/05/2024 12:16,12.07231071
23/05/2024 12:16,14.03647442
23/05/2024 12:16,19.2888962
23/05/2024 12:16,29.22555252
23/05/2024 12:16,42.67853967
23/05/2024 12:16,55.64058028
23/05/2024 12:16,64.45551731
23/05/2024 12:16,68.87563449
23/05/2024 12:16,71.43397883
23/05/2024 12:16,74.09912651
23/05/2024 12:16,76.18657245
23/05/2024 12:16,75.29646347
23/05/2024 12:16,69.64852403
23/05/2024 12:16,59.83661271
23/05/2024 12:16,49.07643296
23/05/2024 12:16,41.57409573
23/05/2024 12:16,39.8034494
23/05/2024 12:16,42.83139576
23/05/2024 12:16,47.26848327
23/05/2024 12:16,49.98695059
23/05/2024 12:16,50.11702572
23/05/2024 12:16,48.87699276
23/05/2024 12:16,48.09041417
23/05/2024 12:16,49.02819587
23/05/2024 12:16,52.14754585
23/05/2024 12:16,57.1980113
23/05/2024 12:16,63.32846582
23/05/2024 12:16,69.44004907
23/05/2024 12:16,74.87903084
23/05/2024 12:16,79.89374297
23/05/2024 12:16,85.25207152
23/05/2024 12:16,91.30598484
23/05/2024 12:16,97.40835989
23/05/2024 12:16,102.2018496
23/05/2024 12:16,104.6309628
23/05/2024 12:16,104.9582369
23/05/2024 12:16,104.8915873
23/05/2024 12:16,106.6913104
23/05/2024 12:16,112.0020106
23/05/2024 12:16,120.9066338
23/05/2024 12:16,131.3249763
23/05/2024 12:16,139.4761157
23/05/2024 12:16,141.9546743
23/05/2024 12:16,138.1823999
23/05/2024 12:16,131.0627974
23/05/2024 12:16,125.1378936
23/05/2024 12:16,123.737644
23/05/2024 12:16,127.2586877
23/05/2024 12:16,133.4771293
23/05/2024 12:16,139.282838
23/05/2024 12:16,142.4981362
23/05/2024 12:16,142.8242937
23/05/2024 12:16,141.7391974
23/05/2024 12:16,141.5794063
23/05/2024 12:16,144.2422197
23/05/2024 12:16,150.1428274
23/05/2024 12:16,157.9737602
23/05/2024 12:16,165.4017061
23/05/2024 12:16,170.3511567
23/05/2024 12:16,172.0992516
23/05/2024 12:16,171.4195994
23/05/2024 12:16,169.8017156
23/05/2024 12:16,168.4837723
23/05/2024 12:16,167.9183064
23/05/2024 12:16,167.8715674
23/05/2024 12:16,167.9470609
23/05/2024 12:16,167.9932472
23/05/2024 12:16,168.0448891
23/05/2024 12:16,168.0768623
23/05/2024 12:16,168.0296769
23/05/2024 12:16,168.0439162
23/05/2024 12:16,168.4960359
23/05/2024 12:16,169.6778737
23/05/2024 12:16,171.3921154
23/05/2024 12:16,172.8917218
23/05/2024 12:16,173.2742274
23/05/2024 12:16,172.0377942
23/05/2024 12:16,169.4152222
23/05/2024 12:16,166.3577597
23/05/2024 12:16,164.2227189
23/05/2024 12:16,164.1889502
23/05/2024 12:16,166.5902542
23/05/2024 12:16,170.7050565
23/05/2024 12:16,175.2528986
23/05/2024 12:16,179.0846668
23/05/2024 12:16,181.4358831
23/05/2024 12:16,181.7772029
23/05/2024 12:16,179.6965151
23/05/2024 12:16,175.0817827
23/05/2024 12:16,168.4950024
23/05/2024 12:16,161.312704
23/05/2024 12:16,155.3028931
23/05/2024 12:16,151.8085566
23/05/2024 12:16,151.0542818
23/05/2024 12:16,152.1317417
23/05/2024 12:16,153.7623607
23/05/2024 12:16,155.2368763
23/05/2024 12:16,156.7127186
23/05/2024 12:16,158.6858619
23/05/2024 12:16,161.2528736
23/05/2024 12:16,163.8750249
23/05/2024 12:16,165.8158558
23/05/2024 12:16,166.7915092
23/05/2024 12:16,167.1872115
23/05/2024 12:16,167.6666987
23/05/2024 12:16,168.5727212
23/05/2024 12:16,169.6322726
23/05/2024 12:16,170.1579017
23/05/2024 12:16,169.5777231
23/05/2024 12:16,167.8860638
23/05/2024 12:16,165.5636063
23/05/2024 12:16,163.0005453
23/05/2024 12:16,160.0991623
23/05/2024 12:16,156.5893944
23/05/2024 12:16,152.737699
23/05/2024 12:16,149.625184
23/05/2024 12:16,148.6191947
23/05/2024 12:16,150.4295413
23/05/2024 12:16,154.4821903
23/05/2024 12:16,159.1040712
23/05/2024 12:16,162.3933267
23/05/2024 12:16,163.1472639
23/05/2024 12:16,161.3054596
23/05/2024 12:16,157.8176568
23/05/2024 12:16,154.0989638
23/05/2024 12:16,151.3201752
23/05/2024 12:16,149.9848385
23/05/2024 12:16,150.0843846
23/05/2024 12:16,151.4409345
23/05/2024 12:16,153.6591072
23/05/2024 12:16,155.8126134
23/05/2024 12:16,156.5947916
23/05/2024 12:16,155.0699093
23/05/2024 12:16,151.2784869
23/05/2024 12:16,146.1758818
23/05/2024 12:16,141.1259938
23/05/2024 12:16,137.3280488
23/05/2024 12:16,135.3419027
23/05/2024 12:16,134.849933
23/05/2024 12:16,134.9047429
23/05/2024 12:16,134.596209
23/05/2024 12:16,133.5683745
23/05/2024 12:16,131.9610969
23/05/2024 12:16,130.0370231
23/05/2024 12:16,128.0605888
23/05/2024 12:16,126.5152194
23/05/2024 12:16,126.2326533
23/05/2024 12:16,128.0092699
23/05/2024 12:16,131.8138236
23/05/2024 12:16,136.346081
23/05/2024 12:16,139.5780499
23/05/2024 12:16,139.9714993
23/05/2024 12:16,137.3759367
23/05/2024 12:16,132.9449793
23/05/2024 12:16,128.3252782
23/05/2024 12:16,124.8051744
23/05/2024 12:16,122.8588087
23/05/2024 12:16,122.1743075
23/05/2024 12:16,122.0637525
23/05/2024 12:16,122.0215188
23/05/2024 12:16,122.0213038
23/05/2024 12:16,122.3265032
23/05/2024 12:16,123.0307205
23/05/2024 12:16,123.7795715
23/05/2024 12:16,123.9711203
23/05/2024 12:16,123.2896977
23/05/2024 12:16,122.1170784
23/05/2024 12:16,121.4370164
23/05/2024 12:16,122.219954
23/05/2024 12:16,124.7288132
23/05/2024 12:16,128.2314529
23/05/2024 12:16,131.2744937
23/05/2024 12:16,132.3645733
23/05/2024 12:16,130.7877992
23/05/2024 12:16,127.1222425
23/05/2024 12:16,122.9059202
23/05/2024 12:16,119.5377095
23/05/2024 12:16,117.3839919
23/05/2024 12:16,115.8545908
23/05/2024 12:16,114.1400526
23/05/2024 12:16,111.8358765
23/05/2024 12:16,109.1605867
23/05/2024 12:16,106.8338781
23/05/2024 12:16,105.6327969
23/05/2024 12:16,105.8072114
23/05/2024 12:16,106.82103
23/05/2024 12:16,107.7135058
23/05/2024 12:16,107.7807616
23/05/2024 12:16,106.9279102
23/05/2024 12:16,105.5402629
23/05/2024 12:16,104.1991461
23/05/2024 12:16,103.429103
23/05/2024 12:16,103.4248608
23/05/2024 12:16,103.8711236
23/05/2024 12:16,104.0992022
23/05/2024 12:16,103.5281458
23/05/2024 12:16,102.0309305
23/05/2024 12:16,99.96088838
23/05/2024 12:16,97.87594349
23/05/2024 12:16,96.23850925
23/05/2024 12:16,95.31634633
23/05/2024 12:16,95.24612501
23/05/2024 12:16,96.0635362
23/05/2024 12:16,97.67018353
23/05/2024 12:16,99.8722949
23/05/2024 12:16,102.4608056
23/05/2024 12:16,105.1804003
23/05/2024 12:16,107.6507933
23/05/2024 12:16,109.4137913
23/05/2024 12:16,110.1150466
23/05/2024 12:16,109.6658463
23/05/2024 12:16,108.2721921
23/05/2024 12:16,106.3003002
23/05/2024 12:16,104.0573911
23/05/2024 12:16,101.6817452
23/05/2024 12:16,99.25411342
23/05/2024 12:16,97.03841009
23/05/2024 12:16,95.57263446
23/05/2024 12:16,95.37758271
23/05/2024 12:16,96.50115432
23/05/2024 12:16,98.39941388
23/05/2024 12:16,100.3591345
23/05/2024 12:16,102.1659643
23/05/2024 12:16,104.3784075
23/05/2024 12:16,107.6560912
23/05/2024 12:16,111.5749547
23/05/2024 12:16,114.3359307
23/05/2024 12:16,113.9814685
23/05/2024 12:16,109.9752451
23/05/2024 12:16,103.7237617
23/05/2024 12:16,97.76801197
23/05/2024 12:16,94.33823303
23/05/2024 12:16,94.22067311
23/05/2024 12:16,96.63465556
23/05/2024 12:16,100.0818243
23/05/2024 12:16,103.3355641
23/05/2024 12:16,105.7895312
23/05/2024 12:16,107.2032447
23/05/2024 12:16,107.4163624
23/05/2024 12:16,106.427639
23/05/2024 12:16,104.6614189
23/05/2024 12:16,102.9632612
23/05/2024 12:16,102.1653551
23/05/2024 12:16,102.6023106
23/05/2024 12:16,104.0421633
23/05/2024 12:16,105.9580937
23/05/2024 12:16,107.7364751
23/05/2024 12:16,108.774497
23/05/2024 12:16,108.6811023
23/05/2024 12:16,107.5023636
23/05/2024 12:16,105.6909978
23/05/2024 12:16,103.8381382
23/05/2024 12:16,102.3680673
23/05/2024 12:16,101.30368
23/05/2024 12:16,100.3170254
23/05/2024 12:16,99.18420015
23/05/2024 12:16,98.23656822
23/05/2024 12:16,98.23041312
23/05/2024 12:16,99.74495162
23/05/2024 12:16,102.8153215
23/05/2024 12:16,107.0479936
23/05/2024 12:16,111.9170362
23/05/2024 12:16,116.8130738
23/05/2024 12:16,121.0198292
23/05/2024 12:16,123.7741053
23/05/2024 12:16,124.4379701
23/05/2024 12:16,122.7414593
23/05/2024 12:16,119.0190673
23/05/2024 12:16,114.2726263
23/05/2024 12:16,109.9250116
23/05/2024 12:16,107.2782286
23/05/2024 12:16,106.9160308
23/05/2024 12:16,108.442469
23/05/2024 12:16,110.7417846
23/05/2024 12:16,112.5137103
23/05/2024 12:16,112.6764194
23/05/2024 12:16,110.5863514
23/05/2024 12:16,106.2562813
23/05/2024 12:16,100.4963861
23/05/2024 12:16,94.73577673
23/05/2024 12:16,90.58149697
23/05/2024 12:16,89.38719922
23/05/2024 12:16,91.82954984
23/05/2024 12:16,97.38669285
23/05/2024 12:16,104.1460538
23/05/2024 12:16,109.5055529
23/05/2024 12:16,111.5434548
23/05/2024 12:16,109.9753444
23/05/2024 12:16,105.8093923
23/05/2024 12:16,100.3790912
23/05/2024 12:16,95.49824966
23/05/2024 12:16,94.48970128
23/05/2024 12:16,101.2713424
23/05/2024 12:16,116.7873668
23/05/2024 12:16,136.5856596
23/05/2024 12:16,152.7682121
23/05/2024 12:16,158.6724236
23/05/2024 12:16,152.183759
23/05/2024 12:16,135.8613744
23/05/2024 12:16,115.2061988
23/05/2024 12:16,96.62535379
23/05/2024 12:16,85.1856788
23/05/2024 12:16,82.38986523
23/05/2024 12:16,85.54183351
23/05/2024 12:16,89.83746165
23/05/2024 12:16,91.84888033
23/05/2024 12:16,91.52078378
23/05/2024 12:16,91.11798059
23/05/2024 12:16,92.44070509
23/05/2024 12:16,95.14937872
23/05/2024 12:16,97.58635085
23/05/2024 12:16,98.69584964
23/05/2024 12:16,98.85704256
23/05/2024 12:16,99.1450329
23/05/2024 12:16,100.2333545
23/05/2024 12:16,102.0261766
23/05/2024 12:16,103.9510094
23/05/2024 12:16,105.3594355
23/05/2024 12:16,105.8793874
23/05/2024 12:16,105.8134002
23/05/2024 12:16,106.3305129
23/05/2024 12:16,108.8912739
23/05/2024 12:16,113.8960903
23/05/2024 12:16,119.6627772
23/05/2024 12:16,123.110614
23/05/2024 12:16,122.0108162
23/05/2024 12:16,116.8290547
23/05/2024 12:16,110.4160324
23/05/2024 12:16,105.8633289
23/05/2024 12:16,104.4324719
23/05/2024 12:16,105.1365917
23/05/2024 12:16,105.9797663
23/05/2024 12:16,105.6291817
23/05/2024 12:16,104.2210928
23/05/2024 12:16,102.9064595
23/05/2024 12:16,102.7931669
23/05/2024 12:16,104.2484238
23/05/2024 12:16,106.9555687
23/05/2024 12:16,110.2967332
23/05/2024 12:16,113.6000269
23/05/2024 12:16,116.2862021
23/05/2024 12:16,118.055982
23/05/2024 12:16,119.0473482
23/05/2024 12:16,119.7969575
23/05/2024 12:16,120.9529472
23/05/2024 12:16,122.8540349
23/05/2024 12:16,125.274714
23/05/2024 12:16,127.5812606
23/05/2024 12:16,129.1629829
23/05/2024 12:16,129.7154869
23/05/2024 12:16,129.1248034
23/05/2024 12:16,127.1938585
23/05/2024 12:16,123.715689
23/05/2024 12:16,118.9413864
23/05/2024 12:16,113.8999552
23/05/2024 12:16,110.1178119
23/05/2024 12:16,108.8775177
23/05/2024 12:16,110.5204814
23/05/2024 12:16,114.3088347
23/05/2024 12:16,119.039081
23/05/2024 12:16,123.8928311
23/05/2024 12:16,128.6890811
23/05/2024 12:16,133.4565371
23/05/2024 12:16,138.0325326
23/05/2024 12:16,142.0875244
23/05/2024 12:16,145.1877259
23/05/2024 12:16,146.5353139
23/05/2024 12:16,144.77532
23/05/2024 12:16,138.4335358
23/05/2024 12:16,126.8108796
23/05/2024 12:16,110.7020978
23/05/2024 12:16,92.47199911
23/05/2024 12:16,75.1764797
23/05/2024 12:16,61.02432457
23/05/2024 12:16,50.35833116
23/05/2024 12:16,41.84071312
23/05/2024 12:16,33.40528329
23/05/2024 12:16,23.57655751
23/05/2024 12:16,12.70264649
23/05/2024 12:16,2.979142446
23/05/2024 12:16,-3.255468629
23/05/2024 12:16,-5.523530074
23/05/2024 12:16,-5.433226913
23/05/2024 12:16,-4.976856699
23/05/2024 12:16,-4.904213396
23/05/2024 12:16,-4.810202159
23/05/2024 12:16,-4.373890122
23/05/2024 12:16,-3.975857017
23/05/2024 12:16,-4.05557373
23/05/2024 12:16,-4.245083866
23/05/2024 12:16,-3.39590235
23/05/2024 12:16,-0.444276738
23/05/2024 12:16,4.706858678
23/05/2024 12:16,10.963253
23/05/2024 12:16,16.67454302
23/05/2024 12:16,20.75279528
23/05/2024 12:16,23.36178647
23/05/2024 12:16,25.53328378
23/05/2024 12:16,28.13890357
