Timestamp,Channel_1,Channel_2,Channel_3,Channel_4,Channel_5
2024-05-26 16:08:56,149,115,114,112,234
2024-05-26 16:08:56,142,117,119,114,235
2024-05-26 16:08:56,130,118,125,116,234
2024-05-26 16:08:56,118,118,125,117,234
2024-05-26 16:08:56,114,117,118,116,234
2024-05-26 16:08:56,118,116,111,114,234
2024-05-26 16:08:56,125,118,110,114,234
2024-05-26 16:08:56,128,119,111,114,234
2024-05-26 16:08:56,129,118,115,114,235
2024-05-26 16:08:56,131,118,123,112,234
2024-05-26 16:08:56,131,118,127,112,235
2024-05-26 16:08:56,131,118,126,115,234
2024-05-26 16:08:56,130,119,121,116,234
2024-05-26 16:08:56,134,118,116,115,235
2024-05-26 16:08:56,141,119,115,114,234
2024-05-26 16:08:56,146,119,119,112,234
2024-05-26 16:08:56,147,121,124,113,234
2024-05-26 16:08:56,146,122,124,116,234
2024-05-26 16:08:56,146,120,121,116,234
2024-05-26 16:08:56,158,119,120,112,234
2024-05-26 16:08:56,170,119,121,113,235
2024-05-26 16:08:56,177,121,123,114,234
2024-05-26 16:08:56,178,122,123,114,234
2024-05-26 16:08:56,176,122,121,113,234
2024-05-26 16:08:56,173,120,119,112,234
2024-05-26 16:08:56,171,118,116,111,235
2024-05-26 16:08:56,173,119,114,111,234
2024-05-26 16:08:56,169,120,113,112,235
2024-05-26 16:08:56,152,119,114,111,234
2024-05-26 16:08:56,135,117,114,111,234
2024-05-26 16:08:56,126,116,116,110,234
2024-05-26 16:08:56,117,116,117,111,234
2024-05-26 16:08:56,108,116,118,111,234
2024-05-26 16:08:56,97,117,117,111,235
2024-05-26 16:08:56,88,117,115,110,235
2024-05-26 16:08:56,82,117,110,110,235
2024-05-26 16:08:56,76,118,108,112,235
2024-05-26 16:08:56,78,119,108,114,235
2024-05-26 16:08:56,83,119,108,115,234
2024-05-26 16:08:56,94,117,109,114,234
2024-05-26 16:08:56,104,118,113,115,234
2024-05-26 16:08:56,109,118,116,116,234
2024-05-26 16:08:56,105,118,120,117,234
2024-05-26 16:08:56,96,117,121,114,234
2024-05-26 16:08:56,86,116,122,112,234
2024-05-26 16:08:56,84,115,121,113,234
2024-05-26 16:08:56,85,116,117,116,235
2024-05-26 16:08:56,86,118,115,117,235
2024-05-26 16:08:56,90,118,114,115,234
2024-05-26 16:08:56,93,116,114,113,234
2024-05-26 16:08:56,86,117,116,113,234
2024-05-26 16:08:56,82,119,115,116,234
2024-05-26 16:08:56,89,120,118,119,234
2024-05-26 16:08:56,100,120,121,119,234
2024-05-26 16:08:56,105,119,125,117,235
2024-05-26 16:08:56,107,119,123,116,234
2024-05-26 16:08:56,103,119,122,117,235
2024-05-26 16:08:56,99,119,125,117,234
2024-05-26 16:08:56,93,117,126,117,234
2024-05-26 16:08:56,87,114,122,115,235
2024-05-26 16:08:56,87,112,115,115,235
2024-05-26 16:08:56,85,113,117,116,235
2024-05-26 16:08:56,89,115,119,118,234
2024-05-26 16:08:56,97,115,120,118,234
2024-05-26 16:08:56,100,115,120,117,234
2024-05-26 16:08:56,96,116,121,118,234
2024-05-26 16:08:56,91,117,123,121,234
2024-05-26 16:08:56,87,117,124,122,235
2024-05-26 16:08:56,88,114,124,120,234
2024-05-26 16:08:56,93,114,122,118,234
2024-05-26 16:08:56,91,114,122,118,235
2024-05-26 16:08:56,82,116,121,120,234
2024-05-26 16:08:56,70,117,117,122,234
2024-05-26 16:08:56,63,116,114,122,233
2024-05-26 16:08:56,59,114,119,121,234
2024-05-26 16:08:56,55,113,124,120,234
2024-05-26 16:08:56,56,114,128,121,234
2024-05-26 16:08:56,62,115,129,121,234
2024-05-26 16:08:56,69,115,127,119,234
2024-05-26 16:08:56,75,112,127,117,234
2024-05-26 16:08:56,82,113,127,117,234
2024-05-26 16:08:56,89,115,127,119,235
2024-05-26 16:08:56,87,116,125,120,234
2024-05-26 16:08:56,80,116,124,120,234
2024-05-26 16:08:56,79,114,127,119,234
2024-05-26 16:08:56,86,114,126,118,232
2024-05-26 16:08:56,93,114,123,120,235
2024-05-26 16:08:56,98,117,123,122,235
2024-05-26 16:08:56,106,117,125,120,234
2024-05-26 16:08:56,113,115,126,119,234
2024-05-26 16:08:56,114,115,128,120,234
2024-05-26 16:08:56,115,118,131,122,234
2024-05-26 16:08:56,114,118,131,122,234
2024-05-26 16:08:56,117,117,129,119,234
2024-05-26 16:08:56,122,117,126,118,235
2024-05-26 16:08:56,128,117,125,119,235
2024-05-26 16:08:56,135,118,123,119,234
2024-05-26 16:08:56,148,119,122,120,235
2024-05-26 16:08:56,162,119,123,120,234
2024-05-26 16:08:56,179,120,128,120,234
2024-05-26 16:08:56,194,120,131,121,234
2024-05-26 16:08:56,200,120,134,123,234
2024-05-26 16:08:56,197,120,134,123,234
2024-05-26 16:08:56,187,120,132,122,234
2024-05-26 16:08:56,175,119,127,120,234
2024-05-26 16:08:56,163,118,129,119,234
2024-05-26 16:08:56,158,119,129,121,234
2024-05-26 16:08:56,159,118,127,121,235
2024-05-26 16:08:56,166,118,128,120,234
2024-05-26 16:08:57,172,117,128,118,234
2024-05-26 16:08:57,174,117,126,117,234
2024-05-26 16:08:57,181,119,123,119,234
2024-05-26 16:08:57,188,120,123,120,234
2024-05-26 16:08:57,182,120,123,120,234
2024-05-26 16:08:57,178,119,125,119,234
2024-05-26 16:08:57,182,118,124,118,234
2024-05-26 16:08:57,179,119,121,117,234
2024-05-26 16:08:57,174,118,119,119,234
2024-05-26 16:08:57,170,118,117,116,234
2024-05-26 16:08:57,167,116,118,115,234
2024-05-26 16:08:57,165,116,120,117,235
2024-05-26 16:08:57,163,118,121,118,234
2024-05-26 16:08:57,154,120,121,119,234
2024-05-26 16:08:57,147,119,121,119,234
2024-05-26 16:08:57,149,118,121,118,234
2024-05-26 16:08:57,151,118,119,118,235
2024-05-26 16:08:57,153,119,117,120,234
2024-05-26 16:08:57,156,121,118,121,235
2024-05-26 16:08:57,154,120,120,120,234
2024-05-26 16:08:57,152,119,114,118,234
2024-05-26 16:08:57,141,119,110,118,234
2024-05-26 16:08:57,129,121,112,119,234
2024-05-26 16:08:57,124,121,117,119,234
2024-05-26 16:08:57,113,119,123,118,234
2024-05-26 16:08:57,104,120,125,118,234
2024-05-26 16:08:57,102,120,125,117,234
2024-05-26 16:08:57,104,121,118,117,234
2024-05-26 16:08:57,106,121,113,118,234
2024-05-26 16:08:57,106,120,108,119,235
2024-05-26 16:08:57,105,119,102,118,234
2024-05-26 16:08:57,107,119,98,117,234
2024-05-26 16:08:57,110,121,100,116,234
2024-05-26 16:08:57,113,122,107,116,234
2024-05-26 16:08:57,113,122,112,115,234
2024-05-26 16:08:57,108,122,113,114,234
2024-05-26 16:08:57,104,122,116,114,234
2024-05-26 16:08:57,101,122,118,117,234
2024-05-26 16:08:57,101,124,118,118,234
2024-05-26 16:08:57,106,124,118,117,234
2024-05-26 16:08:57,114,123,117,116,234
2024-05-26 16:08:57,119,122,115,116,234
2024-05-26 16:08:57,124,123,115,116,234
2024-05-26 16:08:57,123,123,111,116,234
2024-05-26 16:08:57,115,122,105,115,234
2024-05-26 16:08:57,103,121,102,114,234
2024-05-26 16:08:57,101,121,103,114,234
2024-05-26 16:08:57,105,121,105,115,235
2024-05-26 16:08:57,110,121,110,114,234
2024-05-26 16:08:57,116,122,112,114,234
2024-05-26 16:08:57,120,122,113,113,234
2024-05-26 16:08:57,127,122,115,115,235
2024-05-26 16:08:57,135,122,113,115,234
2024-05-26 16:08:57,140,121,111,114,234
2024-05-26 16:08:57,146,119,112,114,234
2024-05-26 16:08:57,150,120,117,115,234
2024-05-26 16:08:57,150,119,118,116,234
2024-05-26 16:08:57,148,120,114,117,234
2024-05-26 16:08:57,150,120,114,117,235
2024-05-26 16:08:57,151,120,116,114,234
2024-05-26 16:08:57,147,121,120,114,234
2024-05-26 16:08:57,143,122,121,116,234
2024-05-26 16:08:57,152,123,118,118,234
2024-05-26 16:08:57,164,122,111,117,234
2024-05-26 16:08:57,172,121,108,114,234
2024-05-26 16:08:57,171,122,109,115,234
2024-05-26 16:08:57,160,123,105,117,234
2024-05-26 16:08:57,146,123,99,118,235
2024-05-26 16:08:57,137,123,105,117,234
2024-05-26 16:08:57,128,123,113,116,234
2024-05-26 16:08:57,124,122,117,116,234
2024-05-26 16:08:57,126,122,115,116,234
2024-05-26 16:08:57,131,123,112,117,234
2024-05-26 16:08:57,137,123,112,117,234
2024-05-26 16:08:57,143,123,113,117,234
2024-05-26 16:08:57,146,123,111,117,234
2024-05-26 16:08:57,142,123,110,118,235
2024-05-26 16:08:57,132,123,110,119,234
2024-05-26 16:08:57,125,121,114,117,234
2024-05-26 16:08:57,119,119,118,114,234
2024-05-26 16:08:57,119,119,115,114,234
2024-05-26 16:08:57,124,120,112,116,234
2024-05-26 16:08:57,129,121,113,117,235
2024-05-26 16:08:57,144,122,114,118,234
2024-05-26 16:08:57,155,122,111,118,235
2024-05-26 16:08:57,160,121,108,118,234
2024-05-26 16:08:57,154,121,103,118,235
2024-05-26 16:08:57,144,121,105,117,234
2024-05-26 16:08:57,138,121,107,117,234
2024-05-26 16:08:57,134,120,109,115,234
2024-05-26 16:08:57,134,120,111,116,235
2024-05-26 16:08:57,138,119,111,117,234
2024-05-26 16:08:57,140,120,112,117,234
2024-05-26 16:08:57,142,119,111,116,234
2024-05-26 16:08:57,142,119,109,116,235
2024-05-26 16:08:57,142,118,106,117,234
2024-05-26 16:08:57,135,119,106,118,235
2024-05-26 16:08:57,124,119,109,121,234
2024-05-26 16:08:57,121,120,111,121,234
2024-05-26 16:08:57,123,120,109,119,234
2024-05-26 16:08:57,130,119,110,119,234
2024-05-26 16:08:57,138,120,115,120,234
2024-05-26 16:08:57,137,120,119,120,234
2024-05-26 16:08:57,136,120,116,120,234
2024-05-26 16:08:57,135,119,110,119,235
2024-05-26 16:08:57,132,118,107,118,234
2024-05-26 16:08:57,129,117,107,117,234
2024-05-26 16:08:57,128,117,109,116,234
2024-05-26 16:08:57,126,117,109,116,234
2024-05-26 16:08:57,123,115,109,117,234
2024-05-26 16:08:57,117,115,117,118,234
2024-05-26 16:08:57,110,116,120,120,234
2024-05-26 16:08:57,102,117,117,119,234
2024-05-26 16:08:57,96,117,117,120,235
2024-05-26 16:08:57,97,115,118,118,234
2024-05-26 16:08:57,103,116,119,119,234
2024-05-26 16:08:57,107,117,121,119,234
2024-05-26 16:08:57,106,117,119,119,234
2024-05-26 16:08:57,97,117,114,118,234
2024-05-26 16:08:57,88,116,109,118,234
2024-05-26 16:08:57,82,115,102,117,234
2024-05-26 16:08:57,70,117,98,118,234
2024-05-26 16:08:57,60,117,99,118,234
2024-05-26 16:08:57,59,115,106,117,234
2024-05-26 16:08:57,63,115,115,115,234
2024-05-26 16:08:57,71,115,118,114,235
2024-05-26 16:08:57,79,117,114,115,234
2024-05-26 16:08:57,85,117,111,116,235
2024-05-26 16:08:57,87,116,117,117,234
2024-05-26 16:08:57,87,115,124,116,234
2024-05-26 16:08:57,91,114,120,115,235
2024-05-26 16:08:57,89,115,118,115,234
2024-05-26 16:08:57,83,116,119,116,234
2024-05-26 16:08:57,79,115,121,115,234
2024-05-26 16:08:57,81,114,119,114,234
2024-05-26 16:08:57,80,114,117,115,234
2024-05-26 16:08:57,74,114,117,117,234
2024-05-26 16:08:57,64,115,118,117,234
2024-05-26 16:08:57,56,114,121,116,235
2024-05-26 16:08:57,65,113,119,116,235
2024-05-26 16:08:57,79,113,116,116,234
2024-05-26 16:08:57,85,116,113,116,234
2024-05-26 16:08:57,78,118,116,117,235
2024-05-26 16:08:57,67,117,118,116,234
2024-05-26 16:08:57,55,115,118,116,234
2024-05-26 16:08:57,47,113,117,117,235
2024-05-26 16:08:57,47,114,113,116,234
2024-05-26 16:08:57,52,116,110,116,234
2024-05-26 16:08:57,56,115,108,116,234
2024-05-26 16:08:57,56,113,106,116,234
2024-05-26 16:08:57,62,112,107,116,234
2024-05-26 16:08:57,73,113,107,117,234
2024-05-26 16:08:57,85,114,111,116,234
2024-05-26 16:08:57,95,114,118,116,235
2024-05-26 16:08:57,104,113,123,116,234
2024-05-26 16:08:57,107,113,124,116,235
2024-05-26 16:08:57,109,114,122,117,234
2024-05-26 16:08:57,113,116,122,118,234
2024-05-26 16:08:57,116,116,121,118,234
2024-05-26 16:08:57,108,115,124,116,234
2024-05-26 16:08:57,101,114,125,115,234
2024-05-26 16:08:57,90,114,124,114,234
2024-05-26 16:08:57,78,114,120,115,235
2024-05-26 16:08:57,73,115,117,116,234
2024-05-26 16:08:57,74,115,118,116,234
2024-05-26 16:08:57,73,116,126,116,234
2024-05-26 16:08:57,67,117,135,117,234
2024-05-26 16:08:57,60,118,136,118,235
2024-05-26 16:08:57,57,118,130,118,235
2024-05-26 16:08:57,57,116,129,116,234
2024-05-26 16:08:57,62,117,134,117,234
2024-05-26 16:08:57,66,118,136,117,235
2024-05-26 16:08:57,72,118,136,115,234
2024-05-26 16:08:57,83,117,133,114,234
2024-05-26 16:08:57,93,117,126,114,234
2024-05-26 16:08:57,98,116,118,115,234
2024-05-26 16:08:57,96,117,116,117,234
2024-05-26 16:08:57,92,118,120,117,234
2024-05-26 16:08:57,90,117,125,116,234
2024-05-26 16:08:57,87,117,124,115,234
2024-05-26 16:08:57,82,116,120,116,235
2024-05-26 16:08:57,77,118,120,118,234
2024-05-26 16:08:57,72,119,115,119,234
2024-05-26 16:08:57,66,118,110,117,234
2024-05-26 16:08:57,59,117,110,117,234
2024-05-26 16:08:57,51,118,112,119,234
2024-05-26 16:08:57,44,120,115,122,235
2024-05-26 16:08:57,38,120,114,121,234
2024-05-26 16:08:57,34,119,113,119,234
2024-05-26 16:08:57,36,118,113,116,234
2024-05-26 16:08:57,42,118,113,115,234
2024-05-26 16:08:57,52,119,114,117,234
2024-05-26 16:08:57,56,119,112,117,235
2024-05-26 16:08:57,58,119,111,117,234
2024-05-26 16:08:57,65,118,111,117,234
2024-05-26 16:08:57,71,118,115,116,234
2024-05-26 16:08:57,70,118,116,116,234
2024-05-26 16:08:57,69,118,113,117,234
2024-05-26 16:08:57,73,118,112,115,234
2024-05-26 16:08:57,79,116,113,114,234
2024-05-26 16:08:57,81,116,114,114,234
2024-05-26 16:08:57,79,117,114,116,235
2024-05-26 16:08:57,76,116,117,116,234
2024-05-26 16:08:57,79,116,121,115,234
2024-05-26 16:08:57,90,116,117,114,234
2024-05-26 16:08:57,102,117,110,115,234
2024-05-26 16:08:57,107,117,112,115,234
2024-05-26 16:08:57,104,118,116,115,234
2024-05-26 16:08:57,105,118,120,115,234
2024-05-26 16:08:57,109,118,118,115,234
2024-05-26 16:08:57,110,118,117,115,234
2024-05-26 16:08:57,109,119,120,115,235
2024-05-26 16:08:57,113,119,120,116,234
2024-05-26 16:08:57,119,118,121,116,234
2024-05-26 16:08:57,122,117,124,115,234
2024-05-26 16:08:57,124,118,128,116,234
2024-05-26 16:08:57,130,117,126,116,234
2024-05-26 16:08:57,136,118,122,115,234
2024-05-26 16:08:57,140,117,121,114,234
2024-05-26 16:08:57,144,116,123,114,234
2024-05-26 16:08:57,147,115,123,113,234
2024-05-26 16:08:57,146,115,123,112,234
2024-05-26 16:08:57,145,116,123,113,234
2024-05-26 16:08:57,142,113,123,113,235
2024-05-26 16:08:57,143,112,120,112,234
2024-05-26 16:08:57,143,113,114,112,234
2024-05-26 16:08:57,142,115,110,113,233
2024-05-26 16:08:57,136,114,110,113,235
2024-05-26 16:08:57,129,112,108,112,234
2024-05-26 16:08:57,119,111,104,111,234
2024-05-26 16:08:57,113,112,104,110,234
2024-05-26 16:08:57,113,113,105,111,234
2024-05-26 16:08:57,123,114,103,114,234
2024-05-26 16:08:57,129,114,105,113,234
2024-05-26 16:08:57,130,114,109,114,234
2024-05-26 16:08:57,127,114,107,115,234
2024-05-26 16:08:57,118,115,108,116,234
2024-05-26 16:08:57,113,115,109,115,234
2024-05-26 16:08:57,115,115,109,114,234
2024-05-26 16:08:57,116,114,108,113,234
2024-05-26 16:08:57,119,113,107,112,234
2024-05-26 16:08:57,118,113,109,114,235
2024-05-26 16:08:57,109,114,113,115,235
2024-05-26 16:08:57,97,114,111,115,234
2024-05-26 16:08:57,91,113,110,113,234
2024-05-26 16:08:57,93,114,111,114,234
2024-05-26 16:08:57,101,115,112,117,234
2024-05-26 16:08:57,110,116,111,119,234
2024-05-26 16:08:58,119,116,112,117,234
2024-05-26 16:08:58,123,115,112,117,234
2024-05-26 16:08:58,125,116,113,118,234
2024-05-26 16:08:58,125,117,111,122,234
2024-05-26 16:08:58,124,118,109,124,234
2024-05-26 16:08:58,126,116,108,122,234
2024-05-26 16:08:58,128,115,110,119,234
2024-05-26 16:08:58,134,115,109,116,234
2024-05-26 16:08:58,141,115,109,116,234
2024-05-26 16:08:58,147,115,108,117,235
2024-05-26 16:08:58,156,114,106,118,234
2024-05-26 16:08:58,165,113,103,116,235
2024-05-26 16:08:58,170,113,103,115,234
2024-05-26 16:08:58,163,113,105,114,234
2024-05-26 16:08:58,154,111,106,115,235
2024-05-26 16:08:58,153,110,108,115,234
2024-05-26 16:08:58,153,111,110,114,235
2024-05-26 16:08:58,151,111,111,113,235
2024-05-26 16:08:58,147,109,112,111,234
2024-05-26 16:08:58,145,112,113,113,234
2024-05-26 16:08:58,147,116,112,117,234
2024-05-26 16:08:58,154,116,109,119,234
2024-05-26 16:08:58,164,114,107,119,234
2024-05-26 16:08:58,167,115,107,118,234
2024-05-26 16:08:58,157,116,111,117,235
2024-05-26 16:08:58,148,114,114,115,234
2024-05-26 16:08:58,150,109,120,112,234
2024-05-26 16:08:58,155,105,121,111,234
2024-05-26 16:08:58,155,109,116,112,234
2024-05-26 16:08:58,150,110,112,114,234
2024-05-26 16:08:58,139,106,111,112,234
2024-05-26 16:08:58,127,94,111,104,234
2024-05-26 16:08:58,116,90,112,99,234
2024-05-26 16:08:58,107,101,115,107,234
2024-05-26 16:08:58,101,110,117,114,235
2024-05-26 16:08:58,96,109,118,114,235
2024-05-26 16:08:58,96,106,122,111,234
2024-05-26 16:08:58,98,104,120,111,235
2024-05-26 16:08:58,101,105,118,110,234
2024-05-26 16:08:58,109,110,120,110,234
2024-05-26 16:08:58,121,105,122,107,234
2024-05-26 16:08:58,133,97,120,104,235
2024-05-26 16:08:58,138,98,116,108,234
2024-05-26 16:08:58,140,105,118,114,235
2024-05-26 16:08:58,144,102,120,109,234
2024-05-26 16:08:58,148,99,117,101,234
2024-05-26 16:08:58,150,105,111,108,234
2024-05-26 16:08:58,151,104,108,107,234
2024-05-26 16:08:58,153,94,108,105,234
2024-05-26 16:08:58,156,85,111,105,235
2024-05-26 16:08:58,152,95,111,109,234
2024-05-26 16:08:58,143,99,112,108,234
2024-05-26 16:08:58,133,97,115,107,234
2024-05-26 16:08:58,127,101,116,109,234
2024-05-26 16:08:58,127,109,118,110,234
2024-05-26 16:08:58,138,112,121,109,234
2024-05-26 16:08:58,145,106,123,106,234
2024-05-26 16:08:58,146,99,122,104,234
2024-05-26 16:08:58,147,108,123,110,234
2024-05-26 16:08:58,150,112,119,113,234
2024-05-26 16:08:58,156,106,113,112,234
2024-05-26 16:08:58,160,101,108,109,235
2024-05-26 16:08:58,161,93,108,108,234
2024-05-26 16:08:58,153,92,112,104,234
2024-05-26 16:08:58,145,106,116,111,234
2024-05-26 16:08:58,146,114,117,116,234
2024-05-26 16:08:58,148,117,113,118,234
2024-05-26 16:08:58,145,115,113,117,235
2024-05-26 16:08:58,139,103,110,110,235
2024-05-26 16:08:58,138,97,111,105,234
2024-05-26 16:08:58,137,104,115,108,234
2024-05-26 16:08:58,139,120,119,118,234
2024-05-26 16:08:58,143,121,118,118,234
2024-05-26 16:08:58,145,116,115,115,234
2024-05-26 16:08:58,147,109,116,109,234
2024-05-26 16:08:58,152,102,121,113,235
2024-05-26 16:08:58,156,105,124,116,234
2024-05-26 16:08:58,154,112,128,114,234
2024-05-26 16:08:58,147,111,129,109,235
2024-05-26 16:08:58,139,107,128,109,235
2024-05-26 16:08:58,127,113,129,106,234
2024-05-26 16:08:58,127,121,128,106,234
2024-05-26 16:08:58,134,124,131,110,234
2024-05-26 16:08:58,145,126,135,113,234
2024-05-26 16:08:58,148,119,137,116,234
2024-05-26 16:08:58,143,124,136,116,234
2024-05-26 16:08:58,133,121,130,112,234
2024-05-26 16:08:58,130,102,124,101,234
2024-05-26 16:08:58,132,112,117,106,234
2024-05-26 16:08:58,129,132,117,118,235
2024-05-26 16:08:58,120,131,119,120,234
2024-05-26 16:08:58,110,128,126,114,235
2024-05-26 16:08:58,103,126,130,110,234
2024-05-26 16:08:58,97,130,128,108,234
2024-05-26 16:08:58,89,140,121,112,234
2024-05-26 16:08:58,79,149,118,116,234
2024-05-26 16:08:58,66,143,122,113,234
2024-05-26 16:08:58,55,116,122,96,234
2024-05-26 16:08:58,45,107,119,91,234
2024-05-26 16:08:58,42,139,116,114,234
2024-05-26 16:08:58,43,153,116,119,234
2024-05-26 16:08:58,42,161,117,121,234
2024-05-26 16:08:58,41,148,118,111,235
2024-05-26 16:08:58,37,131,123,99,234
2024-05-26 16:08:58,30,128,120,102,235
2024-05-26 16:08:58,27,139,116,105,234
2024-05-26 16:08:58,139,114,94,234,234
2024-05-26 16:08:58,42,143,114,98,234
2024-05-26 16:08:58,52,146,117,106,235
2024-05-26 16:08:58,59,145,116,104,235
2024-05-26 16:08:58,63,134,118,98,234
2024-05-26 16:08:58,67,130,117,95,234
2024-05-26 16:08:58,75,132,114,92,234
2024-05-26 16:08:58,86,142,111,98,234
2024-05-26 16:08:58,96,149,112,104,235
2024-05-26 16:08:58,108,144,120,101,234
2024-05-26 16:08:58,117,139,123,94,234
2024-05-26 16:08:58,124,140,123,91,234
2024-05-26 16:08:58,122,145,120,92,234
2024-05-26 16:08:58,111,147,120,97,235
2024-05-26 16:08:58,106,132,118,89,233
2024-05-26 16:08:58,111,127,119,81,235
2024-05-26 16:08:58,115,131,122,83,234
2024-05-26 16:08:58,113,143,126,91,234
2024-05-26 16:08:58,105,151,123,96,234
2024-05-26 16:08:58,103,136,120,87,234
2024-05-26 16:08:58,107,130,122,78,235
2024-05-26 16:08:58,110,140,123,80,234
2024-05-26 16:08:58,113,143,121,84,234
2024-05-26 16:08:58,118,133,115,79,234
2024-05-26 16:08:58,124,134,109,78,234
2024-05-26 16:08:58,127,137,107,78,234
2024-05-26 16:08:58,125,138,106,76,235
2024-05-26 16:08:58,117,132,106,75,234
2024-05-26 16:08:58,107,122,106,65,235
2024-05-26 16:08:58,102,131,105,69,234
2024-05-26 16:08:58,109,134,113,71,235
2024-05-26 16:08:58,112,131,123,68,234
2024-05-26 16:08:58,111,135,126,77,234
2024-05-26 16:08:58,111,129,126,78,234
2024-05-26 16:08:58,112,105,122,68,234
2024-05-26 16:08:58,114,120,118,68,234
2024-05-26 16:08:58,116,133,120,67,234
2024-05-26 16:08:58,121,135,121,69,234
2024-05-26 16:08:58,127,139,120,80,235
2024-05-26 16:08:58,137,141,119,85,234
2024-05-26 16:08:58,142,138,119,81,234
2024-05-26 16:08:58,144,131,116,76,234
2024-05-26 16:08:58,144,123,115,73,234
2024-05-26 16:08:58,139,120,117,71,234
2024-05-26 16:08:58,140,132,119,79,235
2024-05-26 16:08:58,143,144,116,87,234
2024-05-26 16:08:58,146,139,112,81,234
2024-05-26 16:08:58,149,131,112,80,234
2024-05-26 16:08:58,151,129,115,80,234
2024-05-26 16:08:58,159,132,118,80,235
2024-05-26 16:08:58,169,121,116,78,234
2024-05-26 16:08:58,177,111,113,71,234
2024-05-26 16:08:58,184,129,113,76,234
2024-05-26 16:08:58,186,137,114,82,234
2024-05-26 16:08:58,182,135,111,84,235
2024-05-26 16:08:58,131,121,126,76,234
2024-05-26 16:08:58,121,122,124,78,234
2024-05-26 16:08:58,114,119,122,77,235
2024-05-26 16:08:58,112,109,120,81,234
2024-05-26 16:08:58,115,116,120,81,234
2024-05-26 16:08:58,117,124,118,81,234
2024-05-26 16:08:58,119,125,115,80,234
2024-05-26 16:08:58,119,121,118,78,234
2024-05-26 16:08:58,119,105,124,74,234
2024-05-26 16:08:58,128,111,126,81,234
2024-05-26 16:08:58,134,135,121,93,234
2024-05-26 16:08:58,138,139,120,96,234
2024-05-26 16:08:58,141,125,122,82,234
2024-05-26 16:08:58,136,114,122,79,234
2024-05-26 16:08:58,126,115,119,83,234
2024-05-26 16:08:58,116,119,116,84,235
2024-05-26 16:08:58,109,114,113,82,234
2024-05-26 16:08:58,106,110,114,82,235
2024-05-26 16:08:58,103,114,114,86,234
2024-05-26 16:08:58,102,120,113,88,235
2024-05-26 16:08:58,107,115,116,85,235
2024-05-26 16:08:58,116,114,120,86,234
2024-05-26 16:08:58,125,118,120,86,235
2024-05-26 16:08:58,128,115,114,85,234
2024-05-26 16:08:58,124,109,113,83,234
2024-05-26 16:08:58,117,109,117,86,234
2024-05-26 16:08:58,119,109,117,91,234
2024-05-26 16:08:58,133,112,117,92,234
2024-05-26 16:08:58,151,111,123,90,234
2024-05-26 16:08:58,158,107,130,90,234
2024-05-26 16:08:58,157,103,134,83,235
2024-05-26 16:08:58,153,110,136,84,234
2024-05-26 16:08:58,146,109,138,88,234
2024-05-26 16:08:58,142,111,136,89,234
2024-05-26 16:08:58,144,110,128,90,234
2024-05-26 16:08:58,157,111,121,87,234
2024-05-26 16:08:58,174,106,118,87,234
2024-05-26 16:08:58,186,101,121,84,234
2024-05-26 16:08:58,191,100,119,88,234
2024-05-26 16:08:58,185,102,118,91,234
2024-05-26 16:08:58,176,105,116,90,234
2024-05-26 16:08:58,172,92,113,81,234
2024-05-26 16:08:58,171,102,113,84,234
2024-05-26 16:08:58,169,113,113,91,234
2024-05-26 16:08:58,169,110,113,94,234
2024-05-26 16:08:58,175,110,118,95,234
2024-05-26 16:08:58,187,107,120,96,234
2024-05-26 16:08:58,194,105,122,92,235
2024-05-26 16:08:58,195,104,120,89,234
2024-05-26 16:08:58,196,100,118,89,234
2024-05-26 16:08:58,195,91,116,85,235
2024-05-26 16:08:58,196,103,121,86,234
2024-05-26 16:08:58,198,115,124,96,234
2024-05-26 16:08:58,201,115,122,98,235
2024-05-26 16:08:58,203,111,119,91,234
2024-05-26 16:08:58,201,106,116,88,231
2024-05-26 16:08:58,191,104,115,92,234
2024-05-26 16:08:58,185,104,114,91,234
2024-05-26 16:08:58,183,110,117,95,234
2024-05-26 16:08:58,181,108,119,96,234
2024-05-26 16:08:58,178,107,120,99,234
2024-05-26 16:08:58,177,111,122,101,235
2024-05-26 16:08:58,177,105,125,103,235
2024-05-26 16:08:58,174,98,127,92,234
2024-05-26 16:08:58,174,107,124,91,234
2024-05-26 16:08:58,177,111,117,98,234
2024-05-26 16:08:58,181,109,112,100,234
2024-05-26 16:08:58,182,106,115,103,234
2024-05-26 16:08:58,179,104,119,102,235
2024-05-26 16:08:58,174,96,118,98,235
2024-05-26 16:08:58,169,103,114,99,234
2024-05-26 16:08:58,165,112,112,103,234
2024-05-26 16:08:58,162,114,115,105,235
2024-05-26 16:08:58,170,111,117,105,234
2024-05-26 16:08:58,178,104,117,100,234
2024-05-26 16:08:58,179,101,112,94,234
2024-05-26 16:08:58,181,106,106,99,234
2024-05-26 16:08:58,185,108,107,106,234
2024-05-26 16:08:58,186,109,111,105,234
2024-05-26 16:08:58,176,108,118,106,234
2024-05-26 16:08:58,163,106,121,107,234
2024-05-26 16:08:58,150,98,121,104,234
2024-05-26 16:08:58,144,94,120,101,234
2024-05-26 16:08:58,144,111,122,112,234
2024-05-26 16:08:58,146,120,121,117,234
2024-05-26 16:08:58,148,116,120,115,235
2024-05-26 16:08:58,148,113,122,111,234
2024-05-26 16:08:58,148,111,121,111,234
2024-05-26 16:08:59,145,107,118,111,235
2024-05-26 16:08:59,140,102,114,112,234
2024-05-26 16:08:59,132,98,111,113,234
2024-05-26 16:08:59,124,104,111,112,234
2024-05-26 16:08:59,117,113,119,113,234
2024-05-26 16:08:59,111,115,121,113,234
2024-05-26 16:08:59,110,114,117,117,234
2024-05-26 16:08:59,113,109,115,114,234
2024-05-26 16:08:59,114,110,115,116,234
2024-05-26 16:08:59,110,113,116,118,234
2024-05-26 16:08:59,108,109,119,118,234
2024-05-26 16:08:59,109,108,124,116,234
2024-05-26 16:08:59,116,113,124,119,234
2024-05-26 16:08:59,117,103,119,114,234
2024-05-26 16:08:59,108,91,121,108,234
2024-05-26 16:08:59,98,111,123,118,234
2024-05-26 16:08:59,85,128,121,129,235
2024-05-26 16:08:59,75,129,116,132,234
2024-05-26 16:08:59,73,122,112,125,234
2024-05-26 16:08:59,81,113,111,117,234
2024-05-26 16:08:59,90,100,110,116,234
2024-05-26 16:08:59,98,103,109,119,235
2024-05-26 16:08:59,108,114,108,120,235
2024-05-26 16:08:59,114,121,110,124,234
2024-05-26 16:08:59,122,123,116,127,234
2024-05-26 16:08:59,139,114,122,122,234
2024-05-26 16:08:59,146,110,121,116,235
2024-05-26 16:08:59,144,112,120,117,234
2024-05-26 16:08:59,133,115,121,123,235
2024-05-26 16:08:59,120,115,118,121,234
2024-05-26 16:08:59,111,114,117,121,234
2024-05-26 16:08:59,104,110,119,120,234
2024-05-26 16:08:59,96,111,120,119,234
2024-05-26 16:08:59,91,118,123,124,234
2024-05-26 16:08:59,89,111,127,120,234
2024-05-26 16:08:59,89,105,129,115,234
2024-05-26 16:08:59,90,108,124,118,234
2024-05-26 16:08:59,92,116,119,127,234
2024-05-26 16:08:59,101,115,118,130,234
2024-05-26 16:08:59,115,116,122,129,234
2024-05-26 16:08:59,124,115,122,127,234
2024-05-26 16:08:59,129,115,123,123,234
2024-05-26 16:08:59,132,114,126,126,234
2024-05-26 16:08:59,128,103,124,123,235
2024-05-26 16:08:59,116,105,123,116,234
2024-05-26 16:08:59,102,117,122,122,235
2024-05-26 16:08:59,90,120,120,127,234
2024-05-26 16:08:59,82,116,118,126,234
2024-05-26 16:08:59,78,117,122,127,235
2024-05-26 16:08:59,78,114,124,126,235
2024-05-26 16:08:59,82,111,123,125,234
2024-05-26 16:08:59,90,111,120,125,234
2024-05-26 16:08:59,95,112,119,126,235
2024-05-26 16:08:59,90,113,119,126,235
2024-05-26 16:08:59,79,111,122,129,234
2024-05-26 16:08:59,65,113,119,132,235
2024-05-26 16:08:59,57,109,119,128,235
2024-05-26 16:08:59,49,108,126,123,234
2024-05-26 16:08:59,45,111,130,125,235
2024-05-26 16:08:59,44,111,129,125,234
2024-05-26 16:08:59,38,110,127,126,234
2024-05-26 16:08:59,29,111,127,129,234
2024-05-26 16:08:59,21,113,124,132,234
2024-05-26 16:08:59,16,107,121,129,235
2024-05-26 16:08:59,15,100,118,127,234
2024-05-26 16:08:59,18,100,117,127,235
2024-05-26 16:08:59,27,100,115,126,234
2024-05-26 16:08:59,43,116,115,133,235
2024-05-26 16:08:59,52,120,117,137,234
2024-05-26 16:08:59,54,119,119,139,234
2024-05-26 16:08:59,56,111,121,137,235
2024-05-26 16:08:59,62,113,122,136,234
2024-05-26 16:08:59,69,118,123,137,235
2024-05-26 16:08:59,78,121,126,141,234
2024-05-26 16:08:59,88,119,127,142,235
2024-05-26 16:08:59,94,113,128,138,234
2024-05-26 16:08:59,100,112,128,137,234
2024-05-26 16:08:59,108,110,126,137,235
2024-05-26 16:08:59,108,110,123,133,234
2024-05-26 16:08:59,106,112,121,133,234
2024-05-26 16:08:59,102,115,122,136,234
2024-05-26 16:08:59,94,116,121,137,234
2024-05-26 16:08:59,88,114,123,137,234
2024-05-26 16:08:59,88,109,124,135,235
2024-05-26 16:08:59,86,102,124,130,235
2024-05-26 16:08:59,82,108,122,133,234
2024-05-26 16:08:59,79,116,123,137,234
2024-05-26 16:08:59,71,119,120,139,234
2024-05-26 16:08:59,78,117,119,137,234
2024-05-26 16:08:59,93,116,120,135,235
2024-05-26 16:08:59,102,114,120,132,234
2024-05-26 16:08:59,105,116,121,134,234
2024-05-26 16:08:59,100,117,124,138,232
2024-05-26 16:08:59,94,110,127,135,234
2024-05-26 16:08:59,90,107,128,137,235
2024-05-26 16:08:59,85,110,127,138,234
2024-05-26 16:08:59,77,120,120,141,234
2024-05-26 16:08:59,67,124,118,143,234
2024-05-26 16:08:59,68,122,119,139,235
2024-05-26 16:08:59,74,121,126,139,234
2024-05-26 16:08:59,79,117,134,137,234
2024-05-26 16:08:59,79,113,135,134,234
2024-05-26 16:08:59,74,112,130,135,234
2024-05-26 16:08:59,68,118,127,140,234
2024-05-26 16:08:59,69,121,127,143,235
2024-05-26 16:08:59,77,117,126,138,234
2024-05-26 16:08:59,84,115,128,137,234
2024-05-26 16:08:59,81,116,128,139,234
2024-05-26 16:08:59,76,115,128,138,234
2024-05-26 16:08:59,71,114,128,136,234
2024-05-26 16:08:59,70,115,128,137,234
2024-05-26 16:08:59,71,115,128,136,234
2024-05-26 16:08:59,72,114,127,137,235
2024-05-26 16:08:59,64,114,124,137,234
2024-05-26 16:08:59,52,114,124,137,234
2024-05-26 16:08:59,50,115,124,139,234
2024-05-26 16:08:59,59,116,120,139,234
2024-05-26 16:08:59,69,116,112,138,234
2024-05-26 16:08:59,76,115,107,136,234
2024-05-26 16:08:59,88,116,106,136,234
2024-05-26 16:08:59,96,118,104,139,234
2024-05-26 16:08:59,104,115,104,137,234
2024-05-26 16:08:59,114,114,107,136,234
2024-05-26 16:08:59,116,115,110,136,234
2024-05-26 16:08:59,112,115,112,135,234
2024-05-26 16:08:59,106,114,111,132,234
2024-05-26 16:08:59,102,113,108,132,235
2024-05-26 16:08:59,98,113,100,133,234
2024-05-26 16:08:59,95,113,96,134,234
2024-05-26 16:08:59,94,112,96,132,234
2024-05-26 16:08:59,93,111,103,132,234
2024-05-26 16:08:59,97,110,110,132,234
2024-05-26 16:08:59,104,111,110,134,235
2024-05-26 16:08:59,106,112,110,134,234
2024-05-26 16:08:59,106,111,112,135,234
2024-05-26 16:08:59,105,110,114,130,235
2024-05-26 16:08:59,107,111,113,129,234
2024-05-26 16:08:59,115,112,107,132,234
2024-05-26 16:08:59,126,113,101,132,234
2024-05-26 16:08:59,137,115,106,134,234
2024-05-26 16:08:59,144,113,109,131,234
2024-05-26 16:08:59,152,113,109,131,234
2024-05-26 16:08:59,160,113,112,132,234
2024-05-26 16:08:59,165,110,114,132,235
2024-05-26 16:08:59,170,104,111,129,234
2024-05-26 16:08:59,175,99,108,127,234
2024-05-26 16:08:59,179,96,109,127,234
2024-05-26 16:08:59,185,98,111,131,234
2024-05-26 16:08:59,183,98,110,132,235
2024-05-26 16:08:59,182,96,109,130,234
2024-05-26 16:08:59,184,92,110,129,234
2024-05-26 16:08:59,188,92,112,132,234
2024-05-26 16:08:59,186,91,114,134,234
2024-05-26 16:08:59,181,87,118,133,234
2024-05-26 16:08:59,180,76,118,132,234
2024-05-26 16:08:59,177,75,116,128,234
2024-05-26 16:08:59,170,82,114,130,235
2024-05-26 16:08:59,159,88,115,137,234
2024-05-26 16:08:59,149,88,115,138,235
2024-05-26 16:08:59,143,85,116,140,234
2024-05-26 16:08:59,145,81,120,138,235
2024-05-26 16:08:59,155,83,124,142,234
2024-05-26 16:08:59,169,83,127,143,234
2024-05-26 16:08:59,179,80,125,142,234
2024-05-26 16:08:59,180,77,122,137,235
2024-05-26 16:08:59,175,76,115,133,235
2024-05-26 16:08:59,172,77,110,134,235
2024-05-26 16:08:59,174,79,108,136,235
2024-05-26 16:08:59,177,77,110,137,234
2024-05-26 16:08:59,174,71,115,133,234
2024-05-26 16:08:59,166,63,115,129,234
2024-05-26 16:08:59,153,56,111,128,234
2024-05-26 16:08:59,142,51,109,131,234
2024-05-26 16:08:59,133,42,109,133,234
2024-05-26 16:08:59,126,33,113,133,235
2024-05-26 16:08:59,120,26,114,131,234
2024-05-26 16:08:59,119,24,113,132,235
2024-05-26 16:08:59,116,26,115,136,235
2024-05-26 16:08:59,108,27,119,139,234
2024-05-26 16:08:59,108,26,121,137,235
2024-05-26 16:08:59,119,26,121,135,234
2024-05-26 16:08:59,137,26,122,136,234
2024-05-26 16:08:59,153,26,123,134,234
2024-05-26 16:08:59,165,28,124,137,234
2024-05-26 16:08:59,173,32,122,140,234
2024-05-26 16:08:59,175,35,119,141,233
2024-05-26 16:08:59,177,35,118,140,234
2024-05-26 16:08:59,181,34,119,139,235
2024-05-26 16:08:59,188,35,120,140,234
2024-05-26 16:08:59,202,39,123,142,234
2024-05-26 16:08:59,210,41,129,141,234
2024-05-26 16:08:59,214,42,129,142,234
2024-05-26 16:08:59,214,42,128,140,235
2024-05-26 16:08:59,209,45,127,140,235
2024-05-26 16:08:59,205,45,130,139,234
2024-05-26 16:08:59,200,41,131,135,234
2024-05-26 16:08:59,196,40,127,133,234
2024-05-26 16:08:59,195,44,126,136,234
2024-05-26 16:08:59,199,53,122,145,234
2024-05-26 16:08:59,202,59,122,149,235
2024-05-26 16:08:59,199,58,124,147,235
2024-05-26 16:08:59,199,56,124,143,235
2024-05-26 16:08:59,198,59,124,144,235
2024-05-26 16:08:59,197,65,125,150,234
2024-05-26 16:08:59,199,68,123,153,234
2024-05-26 16:08:59,198,70,122,154,234
2024-05-26 16:08:59,195,73,118,158,234
2024-05-26 16:08:59,192,75,114,159,234
2024-05-26 16:08:59,189,74,117,158,234
2024-05-26 16:08:59,191,74,122,156,235
2024-05-26 16:08:59,196,76,128,156,234
2024-05-26 16:08:59,200,80,131,159,234
2024-05-26 16:08:59,198,83,130,160,235
2024-05-26 16:08:59,190,85,127,161,234
2024-05-26 16:08:59,181,85,124,161,235
2024-05-26 16:08:59,174,85,121,161,234
2024-05-26 16:08:59,165,88,119,166,234
2024-05-26 16:08:59,159,96,120,170,232
2024-05-26 16:08:59,157,99,126,174,234
2024-05-26 16:08:59,161,99,130,175,234
2024-05-26 16:08:59,165,99,128,177,234
2024-05-26 16:08:59,166,98,126,178,234
2024-05-26 16:08:59,163,100,126,173,234
2024-05-26 16:08:59,157,101,127,170,234
2024-05-26 16:08:59,150,103,127,172,234
2024-05-26 16:08:59,148,107,124,178,234
2024-05-26 16:08:59,145,113,126,184,235
2024-05-26 16:08:59,142,118,130,187,234
2024-05-26 16:08:59,141,117,130,184,234
2024-05-26 16:08:59,144,117,128,182,234
2024-05-26 16:08:59,150,118,123,180,234
2024-05-26 16:08:59,145,118,119,178,235
2024-05-26 16:08:59,139,120,119,177,234
2024-05-26 16:08:59,140,123,119,179,234
2024-05-26 16:08:59,141,127,117,182,234
2024-05-26 16:08:59,142,131,116,186,235
2024-05-26 16:08:59,142,132,116,183,234
2024-05-26 16:08:59,137,127,115,175,235
2024-05-26 16:08:59,136,138,111,190,234
2024-05-26 16:08:59,137,138,110,190,234
2024-05-26 16:08:59,143,136,109,190,234
2024-05-26 16:08:59,156,132,110,188,234
2024-05-26 16:08:59,166,135,109,184,235
2024-05-26 16:08:59,173,141,105,188,235
2024-05-26 16:08:59,176,143,103,192,235
2024-05-26 16:08:59,172,145,106,194,234
2024-05-26 16:08:59,172,147,111,195,234
2024-05-26 16:08:59,174,143,114,195,233
2024-05-26 16:08:59,171,134,117,195,235
2024-05-26 16:08:59,164,130,117,201,234
2024-05-26 16:08:59,154,124,112,201,235
2024-05-26 16:09:00,144,119,113,200,234
2024-05-26 16:09:00,136,114,116,193,234
2024-05-26 16:09:00,134,117,117,195,235
2024-05-26 16:09:00,135,120,116,196,234
2024-05-26 16:09:00,129,120,115,194,235
2024-05-26 16:09:00,117,124,118,200,234
2024-05-26 16:09:00,109,125,120,203,234
2024-05-26 16:09:00,105,125,122,201,234
2024-05-26 16:09:00,106,126,126,199,235
2024-05-26 16:09:00,111,124,128,199,234
2024-05-26 16:09:00,117,126,127,202,235
2024-05-26 16:09:00,127,129,129,207,234
2024-05-26 16:09:00,136,132,130,208,234
2024-05-26 16:09:00,138,138,131,212,235
2024-05-26 16:09:00,133,140,131,216,235
2024-05-26 16:09:00,127,139,131,212,235
2024-05-26 16:09:00,122,136,129,210,234
2024-05-26 16:09:00,123,143,130,213,235
2024-05-26 16:09:00,131,145,133,213,235
2024-05-26 16:09:00,140,144,132,211,234
2024-05-26 16:09:00,152,142,130,209,234
2024-05-26 16:09:00,171,144,128,210,234
2024-05-26 16:09:00,185,145,125,211,235
2024-05-26 16:09:00,183,140,124,207,235
2024-05-26 16:09:00,171,141,123,205,234
2024-05-26 16:09:00,167,144,120,210,235
2024-05-26 16:09:00,166,148,119,216,234
2024-05-26 16:09:00,159,147,119,215,235
2024-05-26 16:09:00,151,149,119,218,234
2024-05-26 16:09:00,142,146,121,213,234
2024-05-26 16:09:00,131,148,122,209,235
2024-05-26 16:09:00,119,152,124,215,235
2024-05-26 16:09:00,107,154,128,216,234
2024-05-26 16:09:00,101,155,129,218,234
2024-05-26 16:09:00,97,159,126,220,235
2024-05-26 16:09:00,94,160,122,220,235
2024-05-26 16:09:00,94,154,115,212,234
2024-05-26 16:09:00,92,158,111,214,235
2024-05-26 16:09:00,98,163,113,219,234
2024-05-26 16:09:00,104,162,118,216,235
2024-05-26 16:09:00,108,160,119,212,234
2024-05-26 16:09:00,117,162,116,211,235
2024-05-26 16:09:00,128,167,118,217,234
2024-05-26 16:09:00,139,172,123,221,234
2024-05-26 16:09:00,146,173,124,224,234
2024-05-26 16:09:00,151,172,124,222,234
2024-05-26 16:09:00,154,170,125,222,234
2024-05-26 16:09:00,155,176,126,221,235
2024-05-26 16:09:00,159,179,126,222,235
2024-05-26 16:09:00,160,177,124,217,234
2024-05-26 16:09:00,155,176,118,216,235
2024-05-26 16:09:00,146,179,116,218,234
2024-05-26 16:09:00,136,181,115,218,234
2024-05-26 16:09:00,130,184,115,223,234
2024-05-26 16:09:00,132,184,114,221,234
2024-05-26 16:09:00,137,184,114,220,234
2024-05-26 16:09:00,136,184,116,219,234
2024-05-26 16:09:00,133,185,119,220,234
2024-05-26 16:09:00,129,194,120,229,234
2024-05-26 16:09:00,123,188,118,221,234
2024-05-26 16:09:00,117,184,118,214,235
2024-05-26 16:09:00,108,183,120,213,235
2024-05-26 16:09:00,104,187,119,217,234
2024-05-26 16:09:00,109,192,120,224,234
2024-05-26 16:09:00,114,193,119,222,234
2024-05-26 16:09:00,118,192,119,220,234
2024-05-26 16:09:00,117,193,118,218,234
2024-05-26 16:09:00,115,197,115,222,234
2024-05-26 16:09:00,118,203,111,229,234
2024-05-26 16:09:00,120,205,113,231,235
2024-05-26 16:09:00,115,205,116,228,235
2024-05-26 16:09:00,105,204,121,224,234
2024-05-26 16:09:00,95,206,125,224,234
2024-05-26 16:09:00,85,207,122,225,234
2024-05-26 16:09:00,77,207,119,225,234
2024-05-26 16:09:00,70,205,118,224,234
2024-05-26 16:09:00,65,207,120,225,235
2024-05-26 16:09:00,63,209,126,226,234
2024-05-26 16:09:00,63,209,128,224,235
2024-05-26 16:09:00,70,208,128,223,235
2024-05-26 16:09:00,80,212,123,227,234
2024-05-26 16:09:00,87,214,117,231,234
2024-05-26 16:09:00,88,211,119,229,234
2024-05-26 16:09:00,87,208,126,222,235
2024-05-26 16:09:00,86,210,126,218,234
2024-05-26 16:09:00,84,216,125,225,234
2024-05-26 16:09:00,83,218,123,227,234
2024-05-26 16:09:00,81,221,122,228,235
2024-05-26 16:09:00,76,221,121,226,235
2024-05-26 16:09:00,69,224,118,227,234
2024-05-26 16:09:00,71,221,116,224,235
2024-05-26 16:09:00,80,224,111,228,232
2024-05-26 16:09:00,88,226,113,229,234
2024-05-26 16:09:00,94,226,120,229,234
2024-05-26 16:09:00,96,225,125,228,235
2024-05-26 16:09:00,96,223,123,228,235
2024-05-26 16:09:00,93,225,119,230,234
2024-05-26 16:09:00,80,226,116,227,235
2024-05-26 16:09:00,70,227,113,226,235
2024-05-26 16:09:00,64,225,110,222,234
2024-05-26 16:09:00,63,226,111,225,234
2024-05-26 16:09:00,67,226,113,227,234
2024-05-26 16:09:00,72,228,111,227,235
2024-05-26 16:09:00,74,232,113,226,234
2024-05-26 16:09:00,69,235,116,227,234
2024-05-26 16:09:00,63,235,116,230,234
2024-05-26 16:09:00,59,236,112,231,234
2024-05-26 16:09:00,61,235,110,227,234
2024-05-26 16:09:00,64,235,112,224,234
2024-05-26 16:09:00,64,236,112,222,234
2024-05-26 16:09:00,65,235,110,223,234
2024-05-26 16:09:00,65,235,108,227,235
2024-05-26 16:09:00,65,236,110,227,235
2024-05-26 16:09:00,68,236,111,227,235
2024-05-26 16:09:00,73,236,110,226,234
2024-05-26 16:09:00,79,235,107,222,234
2024-05-26 16:09:00,85,235,107,217,234
2024-05-26 16:09:00,87,235,105,216,235
2024-05-26 16:09:00,81,231,104,211,235
2024-05-26 16:09:00,72,233,103,214,235
2024-05-26 16:09:00,65,234,101,220,235
2024-05-26 16:09:00,62,233,101,218,234
2024-05-26 16:09:00,61,235,100,216,234
2024-05-26 16:09:00,59,233,100,214,234
2024-05-26 16:09:00,56,232,105,213,235
2024-05-26 16:09:00,51,236,111,215,235
2024-05-26 16:09:00,43,233,109,213,235
2024-05-26 16:09:00,37,229,105,210,234
2024-05-26 16:09:00,36,230,105,211,234
2024-05-26 16:09:00,37,231,107,213,235
2024-05-26 16:09:00,37,229,108,211,234
2024-05-26 16:09:00,36,224,104,205,234
2024-05-26 16:09:00,31,224,101,205,234
2024-05-26 16:09:00,28,224,96,206,234
2024-05-26 16:09:00,27,226,87,206,235
2024-05-26 16:09:00,33,226,82,204,234
2024-05-26 16:09:00,42,225,83,202,234
2024-05-26 16:09:00,52,226,88,204,235
2024-05-26 16:09:00,63,226,95,203,234
2024-05-26 16:09:00,68,223,95,201,234
2024-05-26 16:09:00,71,226,94,203,234
2024-05-26 16:09:00,73,225,94,201,234
2024-05-26 16:09:00,76,223,96,197,235
2024-05-26 16:09:00,80,225,101,197,234
2024-05-26 16:09:00,81,225,101,198,234
2024-05-26 16:09:00,77,228,102,202,234
2024-05-26 16:09:00,68,225,101,200,235
2024-05-26 16:09:00,56,222,102,198,234
2024-05-26 16:09:00,46,220,102,196,234
2024-05-26 16:09:00,46,220,99,196,234
2024-05-26 16:09:00,49,219,98,195,235
2024-05-26 16:09:00,50,218,99,195,234
2024-05-26 16:09:00,52,219,100,195,234
2024-05-26 16:09:00,51,218,97,192,234
2024-05-26 16:09:00,49,215,94,190,234
2024-05-26 16:09:00,52,212,95,186,234
2024-05-26 16:09:00,59,212,98,183,234
2024-05-26 16:09:00,66,213,97,184,235
2024-05-26 16:09:00,67,212,97,183,234
2024-05-26 16:09:00,60,213,99,186,234
2024-05-26 16:09:00,57,212,101,186,234
2024-05-26 16:09:00,62,210,102,180,234
2024-05-26 16:09:00,74,209,105,174,234
2024-05-26 16:09:00,89,211,104,177,235
2024-05-26 16:09:00,100,210,103,178,235
2024-05-26 16:09:00,100,206,104,174,234
2024-05-26 16:09:00,98,205,107,175,234
2024-05-26 16:09:00,94,203,109,171,235
2024-05-26 16:09:00,88,202,110,169,234
2024-05-26 16:09:00,81,203,111,173,234
2024-05-26 16:09:00,69,198,108,170,234
2024-05-26 16:09:00,66,199,102,169,234
2024-05-26 16:09:00,70,199,99,169,235
2024-05-26 16:09:00,71,196,104,166,234
2024-05-26 16:09:00,69,193,109,163,234
2024-05-26 16:09:00,60,191,113,161,234
2024-05-26 16:09:00,52,195,116,166,234
2024-05-26 16:09:00,45,197,112,168,235
2024-05-26 16:09:00,39,196,109,165,234
2024-05-26 16:09:00,36,193,109,161,234
2024-05-26 16:09:00,39,190,109,158,234
2024-05-26 16:09:00,47,190,106,160,234
2024-05-26 16:09:00,54,190,101,159,234
2024-05-26 16:09:00,59,188,97,153,234
2024-05-26 16:09:00,61,188,98,152,234
2024-05-26 16:09:00,64,186,101,152,234
2024-05-26 16:09:00,66,191,105,156,234
2024-05-26 16:09:00,59,187,110,155,234
2024-05-26 16:09:00,44,180,115,149,234
2024-05-26 16:09:00,30,178,115,146,234
2024-05-26 16:09:00,25,177,118,146,234
2024-05-26 16:09:00,33,175,120,144,235
2024-05-26 16:09:00,44,174,118,143,235
2024-05-26 16:09:00,52,173,116,141,234
2024-05-26 16:09:00,52,173,117,137,234
2024-05-26 16:09:00,50,174,121,139,235
2024-05-26 16:09:00,47,173,120,144,234
2024-05-26 16:09:00,51,173,118,144,234
2024-05-26 16:09:00,60,168,116,139,234
2024-05-26 16:09:00,64,163,115,135,235
2024-05-26 16:09:00,65,163,116,134,234
2024-05-26 16:09:00,62,167,113,138,235
2024-05-26 16:09:00,60,167,112,138,234
2024-05-26 16:09:00,57,166,115,137,234
2024-05-26 16:09:00,51,163,119,134,234
2024-05-26 16:09:00,47,160,123,131,235
2024-05-26 16:09:00,46,158,126,129,234
2024-05-26 16:09:00,53,158,123,129,234
2024-05-26 16:09:00,59,157,116,128,234
2024-05-26 16:09:00,66,157,113,130,234
2024-05-26 16:09:00,73,154,112,127,234
2024-05-26 16:09:00,81,155,111,129,235
2024-05-26 16:09:00,88,155,107,128,235
2024-05-26 16:09:00,91,156,108,128,234
2024-05-26 16:09:00,89,156,110,128,234
2024-05-26 16:09:00,81,151,108,123,234
2024-05-26 16:09:00,71,149,106,121,232
2024-05-26 16:09:00,71,144,103,118,235
2024-05-26 16:09:00,75,142,104,116,234
2024-05-26 16:09:00,84,142,106,114,235
2024-05-26 16:09:00,93,142,109,115,235
2024-05-26 16:09:00,102,143,110,115,235
2024-05-26 16:09:00,108,143,108,116,234
2024-05-26 16:09:00,111,142,106,115,235
2024-05-26 16:09:00,113,141,108,115,234
2024-05-26 16:09:00,114,138,109,112,234
2024-05-26 16:09:00,110,139,110,116,235
2024-05-26 16:09:00,105,134,107,109,235
2024-05-26 16:09:00,106,132,103,105,234
2024-05-26 16:09:00,108,132,100,108,235
2024-05-26 16:09:00,110,131,102,110,234
2024-05-26 16:09:00,112,131,107,110,234
2024-05-26 16:09:00,124,131,110,110,234
2024-05-26 16:09:00,135,130,111,109,234
2024-05-26 16:09:00,141,129,110,109,235
2024-05-26 16:09:00,141,131,111,109,234
2024-05-26 16:09:00,131,130,110,107,235
2024-05-26 16:09:00,117,128,107,106,234
2024-05-26 16:09:00,105,127,114,105,234
2024-05-26 16:09:00,97,123,121,100,234
2024-05-26 16:09:00,97,123,123,100,234
2024-05-26 16:09:00,103,124,119,103,235
2024-05-26 16:09:00,107,124,115,104,234
2024-05-26 16:09:00,113,122,111,103,234
2024-05-26 16:09:00,117,119,112,99,235
2024-05-26 16:09:00,115,116,113,96,234
2024-05-26 16:09:00,113,118,110,98,234
2024-05-26 16:09:00,118,117,112,99,234
2024-05-26 16:09:00,128,117,117,97,234
2024-05-26 16:09:00,139,120,121,103,234
2024-05-26 16:09:01,151,116,121,101,234
2024-05-26 16:09:01,162,112,123,96,234
2024-05-26 16:09:01,177,109,122,94,234
2024-05-26 16:09:01,192,111,123,97,234
2024-05-26 16:09:01,196,111,126,95,234
2024-05-26 16:09:01,194,110,127,95,234
2024-05-26 16:09:01,189,109,127,97,234
2024-05-26 16:09:01,188,110,124,97,234
2024-05-26 16:09:01,180,107,118,91,234
2024-05-26 16:09:01,170,104,113,87,234
2024-05-26 16:09:01,161,104,114,89,234
2024-05-26 16:09:01,153,106,116,91,234
2024-05-26 16:09:01,148,108,115,95,234
2024-05-26 16:09:01,149,106,115,95,234
2024-05-26 16:09:01,149,104,116,93,234
2024-05-26 16:09:01,148,103,115,92,235
2024-05-26 16:09:01,139,101,112,91,234
2024-05-26 16:09:01,134,103,111,94,234
2024-05-26 16:09:01,128,100,113,91,234
2024-05-26 16:09:01,124,97,111,87,234
2024-05-26 16:09:01,121,92,110,82,234
2024-05-26 16:09:01,118,94,114,82,234
2024-05-26 16:09:01,114,99,116,88,234
2024-05-26 16:09:01,109,101,117,93,235
2024-05-26 16:09:01,101,95,119,88,234
2024-05-26 16:09:01,99,94,119,86,235
2024-05-26 16:09:01,100,96,123,87,234
2024-05-26 16:09:01,99,98,125,90,234
2024-05-26 16:09:01,96,100,124,93,234
2024-05-26 16:09:01,96,98,117,93,234
2024-05-26 16:09:01,96,94,113,86,234
2024-05-26 16:09:01,92,91,114,83,234
2024-05-26 16:09:01,87,92,116,86,235
2024-05-26 16:09:01,85,94,117,87,234
2024-05-26 16:09:01,82,93,120,86,234
2024-05-26 16:09:01,84,92,126,85,234
2024-05-26 16:09:01,92,94,127,87,234
2024-05-26 16:09:01,102,94,123,87,234
2024-05-26 16:09:01,112,95,122,85,234
2024-05-26 16:09:01,125,96,119,86,235
2024-05-26 16:09:01,139,96,120,86,234
2024-05-26 16:09:01,149,93,121,83,235
2024-05-26 16:09:01,157,93,121,84,234
2024-05-26 16:09:01,168,92,119,82,234
2024-05-26 16:09:01,180,94,120,83,234
2024-05-26 16:09:01,192,93,122,84,234
2024-05-26 16:09:01,193,91,120,81,234
2024-05-26 16:09:01,185,92,122,80,234
2024-05-26 16:09:01,175,93,126,82,234
2024-05-26 16:09:01,163,93,123,85,234
2024-05-26 16:09:01,157,93,120,86,235
2024-05-26 16:09:01,155,91,119,84,234
2024-05-26 16:09:01,154,92,117,85,235
2024-05-26 16:09:01,162,92,117,84,235
2024-05-26 16:09:01,172,91,115,84,234
2024-05-26 16:09:01,178,91,120,83,234
2024-05-26 16:09:01,174,90,122,81,235
2024-05-26 16:09:01,169,89,120,79,234
2024-05-26 16:09:01,172,89,121,81,234
2024-05-26 16:09:01,172,94,122,85,235
2024-05-26 16:09:01,170,89,118,81,234
2024-05-26 16:09:01,171,83,114,76,234
2024-05-26 16:09:01,170,84,113,75,234
2024-05-26 16:09:01,170,85,116,76,234
2024-05-26 16:09:01,173,84,121,73,234
2024-05-26 16:09:01,174,84,124,72,235
2024-05-26 16:09:01,173,84,124,72,235
2024-05-26 16:09:01,168,85,124,72,234
2024-05-26 16:09:01,162,86,123,76,234
2024-05-26 16:09:01,159,85,121,77,234
2024-05-26 16:09:01,155,86,120,79,235
2024-05-26 16:09:01,144,84,117,77,234
2024-05-26 16:09:01,137,83,115,72,234
2024-05-26 16:09:01,141,82,116,69,234
2024-05-26 16:09:01,146,82,119,69,234
2024-05-26 16:09:01,145,80,122,67,234
2024-05-26 16:09:01,150,80,122,67,234
2024-05-26 16:09:01,158,80,117,68,235
2024-05-26 16:09:01,161,83,114,71,234
2024-05-26 16:09:01,164,84,110,74,235
2024-05-26 16:09:01,170,83,110,71,234
2024-05-26 16:09:01,172,81,109,68,234
2024-05-26 16:09:01,170,77,107,62,235
2024-05-26 16:09:01,173,80,107,65,234
2024-05-26 16:09:01,177,81,107,69,235
2024-05-26 16:09:01,174,82,110,71,234
2024-05-26 16:09:01,158,82,115,71,234
2024-05-26 16:09:01,141,81,117,69,234
2024-05-26 16:09:01,126,82,118,71,234
2024-05-26 16:09:01,114,81,119,71,234
2024-05-26 16:09:01,103,82,119,71,234
2024-05-26 16:09:01,94,82,117,73,232
2024-05-26 16:09:01,90,82,116,72,234
2024-05-26 16:09:01,86,82,119,75,234
2024-05-26 16:09:01,82,82,121,77,234
2024-05-26 16:09:01,79,83,120,78,234
2024-05-26 16:09:01,80,82,118,78,234
2024-05-26 16:09:01,86,81,114,77,235
2024-05-26 16:09:01,94,78,110,73,234
2024-05-26 16:09:01,102,76,111,72,234
2024-05-26 16:09:01,104,78,111,73,235
2024-05-26 16:09:01,101,75,109,71,234
2024-05-26 16:09:01,104,77,109,73,234
2024-05-26 16:09:01,109,79,113,74,234
2024-05-26 16:09:01,112,79,118,73,234
2024-05-26 16:09:01,115,78,120,72,234
2024-05-26 16:09:01,115,78,118,72,234
2024-05-26 16:09:01,111,76,116,72,235
2024-05-26 16:09:01,109,78,116,74,235
2024-05-26 16:09:01,110,80,118,76,234
2024-05-26 16:09:01,108,80,122,77,234
2024-05-26 16:09:01,106,79,121,73,234
2024-05-26 16:09:01,100,79,115,72,234
2024-05-26 16:09:01,96,78,112,74,234
2024-05-26 16:09:01,94,75,115,73,234
2024-05-26 16:09:01,97,76,117,72,235
2024-05-26 16:09:01,102,78,114,74,234
2024-05-26 16:09:01,102,79,110,75,234
2024-05-26 16:09:01,94,78,111,78,234
2024-05-26 16:09:01,89,78,114,78,234
2024-05-26 16:09:01,85,79,117,79,234
2024-05-26 16:09:01,83,79,114,78,234
2024-05-26 16:09:01,81,79,114,80,234
2024-05-26 16:09:01,84,77,117,79,234
2024-05-26 16:09:01,85,76,116,78,234
2024-05-26 16:09:01,87,76,115,80,234
2024-05-26 16:09:01,86,76,114,80,234
2024-05-26 16:09:01,84,78,113,83,235
2024-05-26 16:09:01,79,78,109,82,235
2024-05-26 16:09:01,73,77,109,80,234
2024-05-26 16:09:01,75,78,115,79,234
2024-05-26 16:09:01,77,80,117,81,234
2024-05-26 16:09:01,81,83,118,83,234
2024-05-26 16:09:01,81,83,120,83,234
2024-05-26 16:09:01,78,82,121,84,234
2024-05-26 16:09:01,74,78,121,80,235
2024-05-26 16:09:01,71,78,122,79,234
2024-05-26 16:09:01,72,78,124,79,234
2024-05-26 16:09:01,81,77,125,76,234
2024-05-26 16:09:01,88,76,125,76,235
2024-05-26 16:09:01,91,78,125,78,234
2024-05-26 16:09:01,86,80,123,81,234
2024-05-26 16:09:01,85,82,120,82,234
2024-05-26 16:09:01,92,81,117,80,234
2024-05-26 16:09:01,102,79,122,79,235
2024-05-26 16:09:01,113,79,125,80,235
2024-05-26 16:09:01,120,80,124,81,234
2024-05-26 16:09:01,120,83,119,85,235
2024-05-26 16:09:01,114,81,111,85,234
2024-05-26 16:09:01,105,80,105,82,235
2024-05-26 16:09:01,94,82,107,81,235
2024-05-26 16:09:01,84,84,109,84,234
2024-05-26 16:09:01,79,85,109,86,234
2024-05-26 16:09:01,77,84,111,85,235
2024-05-26 16:09:01,80,84,115,84,234
2024-05-26 16:09:01,80,84,120,84,234
2024-05-26 16:09:01,75,84,121,85,234
2024-05-26 16:09:01,72,85,120,83,234
2024-05-26 16:09:01,71,87,120,85,234
2024-05-26 16:09:01,79,85,127,84,234
2024-05-26 16:09:01,83,84,124,84,234
2024-05-26 16:09:01,86,84,116,84,234
2024-05-26 16:09:01,84,84,113,81,234
2024-05-26 16:09:01,79,85,115,83,234
2024-05-26 16:09:01,79,85,116,85,234
2024-05-26 16:09:01,88,85,121,85,234
2024-05-26 16:09:01,98,85,121,83,234
2024-05-26 16:09:01,99,87,121,85,234
2024-05-26 16:09:01,99,86,119,86,235
2024-05-26 16:09:01,95,85,118,84,234
2024-05-26 16:09:01,93,86,116,85,234
2024-05-26 16:09:01,94,91,118,91,234
2024-05-26 16:09:01,97,85,126,84,234
2024-05-26 16:09:01,107,83,131,83,235
2024-05-26 16:09:01,112,85,130,84,234
2024-05-26 16:09:01,113,87,124,86,234
2024-05-26 16:09:01,116,88,121,87,234
2024-05-26 16:09:01,122,87,120,87,234
2024-05-26 16:09:01,121,88,118,88,235
2024-05-26 16:09:01,111,88,121,88,234
2024-05-26 16:09:01,103,88,124,86,235
2024-05-26 16:09:01,103,88,126,84,234
2024-05-26 16:09:01,111,89,129,86,234
2024-05-26 16:09:01,122,91,130,87,234
2024-05-26 16:09:01,132,90,126,86,234
2024-05-26 16:09:01,136,91,123,88,234
2024-05-26 16:09:01,136,90,125,87,235
2024-05-26 16:09:01,129,89,125,85,235
2024-05-26 16:09:01,121,90,121,87,234
2024-05-26 16:09:01,116,91,120,89,235
2024-05-26 16:09:01,115,89,121,87,235
2024-05-26 16:09:01,120,87,120,86,234
2024-05-26 16:09:01,123,86,121,83,234
2024-05-26 16:09:01,124,85,125,84,234
2024-05-26 16:09:01,122,87,125,87,234
2024-05-26 16:09:01,118,86,123,89,234
2024-05-26 16:09:01,117,87,123,87,234
2024-05-26 16:09:01,119,91,121,89,234
2024-05-26 16:09:01,121,92,119,91,234
2024-05-26 16:09:01,129,92,118,90,235
2024-05-26 16:09:01,143,92,117,91,234
2024-05-26 16:09:01,159,92,117,91,235
2024-05-26 16:09:01,169,94,119,92,234
2024-05-26 16:09:01,176,96,124,93,234
2024-05-26 16:09:01,179,96,127,94,235
2024-05-26 16:09:01,182,96,126,92,234
2024-05-26 16:09:01,184,92,126,89,234
2024-05-26 16:09:01,184,91,125,89,234
2024-05-26 16:09:01,183,91,124,91,234
2024-05-26 16:09:01,181,93,124,94,235
2024-05-26 16:09:01,174,92,124,92,234
2024-05-26 16:09:01,166,92,122,91,235
2024-05-26 16:09:01,160,90,121,89,235
2024-05-26 16:09:01,148,89,122,89,234
2024-05-26 16:09:01,134,92,122,93,232
2024-05-26 16:09:01,131,94,124,95,235
2024-05-26 16:09:01,140,94,127,96,234
2024-05-26 16:09:01,150,93,128,94,234
2024-05-26 16:09:01,157,91,128,91,234
2024-05-26 16:09:01,158,90,128,91,234
2024-05-26 16:09:01,157,91,128,92,235
2024-05-26 16:09:01,158,91,127,93,234
2024-05-26 16:09:01,158,90,124,93,234
2024-05-26 16:09:01,157,90,125,92,234
2024-05-26 16:09:01,158,92,128,95,235
2024-05-26 16:09:01,162,94,130,97,234
2024-05-26 16:09:01,172,95,128,97,234
2024-05-26 16:09:01,182,95,126,96,234
2024-05-26 16:09:01,191,94,124,95,234
2024-05-26 16:09:01,192,90,124,91,234
2024-05-26 16:09:01,189,89,127,91,234
2024-05-26 16:09:01,189,90,126,92,234
2024-05-26 16:09:01,192,88,122,91,234
2024-05-26 16:09:01,192,88,118,91,235
2024-05-26 16:09:01,189,89,120,91,234
2024-05-26 16:09:01,182,89,126,92,235
2024-05-26 16:09:01,170,90,127,92,234
2024-05-26 16:09:01,156,89,127,92,234
2024-05-26 16:09:01,145,89,126,93,234
2024-05-26 16:09:01,139,89,124,93,234
2024-05-26 16:09:01,132,89,122,93,234
2024-05-26 16:09:01,131,89,118,93,234
2024-05-26 16:09:01,136,92,116,95,234
2024-05-26 16:09:01,140,90,115,94,235
2024-05-26 16:09:01,138,89,114,90,234
2024-05-26 16:09:01,132,89,118,92,234
2024-05-26 16:09:01,124,90,121,92,235
2024-05-26 16:09:02,116,90,118,93,234
2024-05-26 16:09:02,113,91,117,95,235
2024-05-26 16:09:02,108,90,115,95,234
2024-05-26 16:09:02,106,89,118,94,235
2024-05-26 16:09:02,105,89,122,93,235
2024-05-26 16:09:02,103,88,123,94,234
2024-05-26 16:09:02,100,87,125,94,234
2024-05-26 16:09:02,98,92,122,95,234
2024-05-26 16:09:02,96,96,114,99,234
2024-05-26 16:09:02,97,95,109,96,234
2024-05-26 16:09:02,95,94,111,96,234
2024-05-26 16:09:02,92,93,113,96,234
2024-05-26 16:09:02,94,94,114,97,234
2024-05-26 16:09:02,100,94,117,97,234
2024-05-26 16:09:02,97,95,125,96,234
2024-05-26 16:09:02,91,94,122,92,234
2024-05-26 16:09:02,95,94,116,94,234
2024-05-26 16:09:02,103,93,112,94,234
2024-05-26 16:09:02,112,98,115,99,235
2024-05-26 16:09:02,119,99,117,99,235
2024-05-26 16:09:02,120,100,120,99,234
2024-05-26 16:09:02,118,99,119,99,234
2024-05-26 16:09:02,121,97,118,97,234
2024-05-26 16:09:02,127,97,118,96,234
2024-05-26 16:09:02,130,98,118,96,235
2024-05-26 16:09:02,121,97,119,96,234
2024-05-26 16:09:02,112,97,119,95,234
2024-05-26 16:09:02,109,97,117,95,234
2024-05-26 16:09:02,115,97,117,93,234
2024-05-26 16:09:02,121,99,117,95,234
2024-05-26 16:09:02,122,100,117,100,235
2024-05-26 16:09:02,115,97,118,98,234
2024-05-26 16:09:02,107,95,119,95,234
2024-05-26 16:09:02,104,96,120,94,234
2024-05-26 16:09:02,102,99,120,97,234
2024-05-26 16:09:02,106,98,122,96,234
2024-05-26 16:09:02,111,98,123,96,234
2024-05-26 16:09:02,118,99,126,98,233
2024-05-26 16:09:02,121,101,130,99,235
2024-05-26 16:09:02,119,99,132,97,234
2024-05-26 16:09:02,118,97,132,96,234
2024-05-26 16:09:02,114,99,130,99,234
2024-05-26 16:09:02,109,101,127,102,235
2024-05-26 16:09:02,109,102,123,104,234
2024-05-26 16:09:02,113,100,120,100,234
2024-05-26 16:09:02,124,99,116,98,234
2024-05-26 16:09:02,139,99,111,98,234
2024-05-26 16:09:02,143,102,109,102,234
2024-05-26 16:09:02,135,105,109,105,234
2024-05-26 16:09:02,129,107,113,107,234
2024-05-26 16:09:02,127,105,116,105,234
2024-05-26 16:09:02,124,103,116,103,234
2024-05-26 16:09:02,122,104,115,101,234
2024-05-26 16:09:02,123,105,114,102,234
2024-05-26 16:09:02,121,104,113,102,234
2024-05-26 16:09:02,113,103,113,101,234
2024-05-26 16:09:02,111,103,111,102,235
2024-05-26 16:09:02,117,103,109,103,234
2024-05-26 16:09:02,122,104,105,103,234
2024-05-26 16:09:02,124,105,104,105,234
2024-05-26 16:09:02,125,105,108,103,234
2024-05-26 16:09:02,125,104,113,103,234
2024-05-26 16:09:02,125,105,114,103,234
2024-05-26 16:09:02,123,106,112,103,234
2024-05-26 16:09:02,116,105,113,102,234
2024-05-26 16:09:02,110,105,114,103,235
2024-05-26 16:09:02,109,106,116,104,234
2024-05-26 16:09:02,110,104,120,103,235
2024-05-26 16:09:02,115,104,125,103,234
2024-05-26 16:09:02,122,105,127,103,234
2024-05-26 16:09:02,124,105,125,102,234
2024-05-26 16:09:02,121,105,121,103,234
2024-05-26 16:09:02,120,107,120,107,234
2024-05-26 16:09:02,126,107,113,107,234
2024-05-26 16:09:02,129,107,109,105,234
2024-05-26 16:09:02,132,106,108,103,235
2024-05-26 16:09:02,135,107,108,105,235
2024-05-26 16:09:02,142,108,113,105,235
2024-05-26 16:09:02,142,109,113,106,234
2024-05-26 16:09:02,137,109,109,104,235
2024-05-26 16:09:02,135,107,107,102,234
2024-05-26 16:09:02,133,107,107,102,234
2024-05-26 16:09:02,132,107,111,103,234
2024-05-26 16:09:02,126,109,118,107,234
2024-05-26 16:09:02,121,108,121,105,234
2024-05-26 16:09:02,117,108,123,102,234
2024-05-26 16:09:02,111,107,122,101,234
2024-05-26 16:09:02,103,107,113,101,234
2024-05-26 16:09:02,99,108,107,105,234
2024-05-26 16:09:02,99,109,105,107,234
2024-05-26 16:09:02,103,110,110,109,234
2024-05-26 16:09:02,105,105,111,104,234
2024-05-26 16:09:02,106,103,111,100,232
2024-05-26 16:09:02,107,104,112,101,234
2024-05-26 16:09:02,108,104,112,102,234
2024-05-26 16:09:02,110,103,111,100,234
2024-05-26 16:09:02,112,104,115,103,234
2024-05-26 16:09:02,116,107,117,108,234
2024-05-26 16:09:02,123,110,117,110,234
2024-05-26 16:09:02,123,107,115,107,234
2024-05-26 16:09:02,122,107,111,106,234
2024-05-26 16:09:02,125,106,112,104,234
2024-05-26 16:09:02,128,104,116,100,235
2024-05-26 16:09:02,132,107,115,104,235
2024-05-26 16:09:02,131,108,113,106,234
2024-05-26 16:09:02,132,106,112,104,235
2024-05-26 16:09:02,130,110,112,108,234
2024-05-26 16:09:02,125,108,113,104,234
2024-05-26 16:09:02,118,108,113,105,234
2024-05-26 16:09:02,115,108,112,106,234
2024-05-26 16:09:02,122,108,114,105,234
2024-05-26 16:09:02,136,107,117,103,234
2024-05-26 16:09:02,147,107,116,103,234
2024-05-26 16:09:02,154,108,119,105,235
2024-05-26 16:09:02,161,110,119,108,234
2024-05-26 16:09:02,165,110,113,110,234
2024-05-26 16:09:02,168,112,111,110,234
2024-05-26 16:09:02,165,112,110,112,234
2024-05-26 16:09:02,157,110,115,109,234
2024-05-26 16:09:02,150,106,117,104,234
2024-05-26 16:09:02,149,106,116,103,234
2024-05-26 16:09:02,148,110,111,106,234
2024-05-26 16:09:02,149,111,109,109,234
2024-05-26 16:09:02,150,110,109,109,234
2024-05-26 16:09:02,150,109,110,108,234
2024-05-26 16:09:02,151,111,109,111,234
2024-05-26 16:09:02,147,111,111,111,235
2024-05-26 16:09:02,140,110,113,109,235
2024-05-26 16:09:02,131,113,116,112,234
2024-05-26 16:09:02,118,110,122,108,235
2024-05-26 16:09:02,108,108,121,107,234
2024-05-26 16:09:02,96,108,124,107,234
2024-05-26 16:09:02,88,109,122,107,234
2024-05-26 16:09:02,82,110,115,107,235
2024-05-26 16:09:02,77,109,112,106,235
2024-05-26 16:09:02,74,107,120,104,235
2024-05-26 16:09:02,75,109,128,105,234
2024-05-26 16:09:02,77,110,130,107,234
2024-05-26 16:09:02,76,109,129,109,234
2024-05-26 16:09:02,79,108,123,108,234
2024-05-26 16:09:02,77,108,117,107,234
2024-05-26 16:09:02,76,110,116,104,235
2024-05-26 16:09:02,81,111,119,108,234
2024-05-26 16:09:02,86,111,116,109,234
2024-05-26 16:09:02,91,110,113,108,234
2024-05-26 16:09:02,94,107,115,104,235
2024-05-26 16:09:02,96,108,119,104,235
2024-05-26 16:09:02,95,109,122,109,234
2024-05-26 16:09:02,94,112,121,114,234
2024-05-26 16:09:02,95,112,123,111,234
2024-05-26 16:09:02,92,109,120,108,234
2024-05-26 16:09:02,91,108,117,110,234
2024-05-26 16:09:02,93,108,114,110,234
2024-05-26 16:09:02,97,114,115,115,234
2024-05-26 16:09:02,106,113,115,111,234
2024-05-26 16:09:02,124,109,115,106,234
2024-05-26 16:09:02,139,107,115,104,235
2024-05-26 16:09:02,141,108,114,105,234
2024-05-26 16:09:02,131,110,113,107,234
2024-05-26 16:09:02,126,112,117,110,235
2024-05-26 16:09:02,129,110,118,109,234
2024-05-26 16:09:02,136,110,117,109,235
2024-05-26 16:09:02,145,108,118,107,234
2024-05-26 16:09:02,151,107,117,106,234
2024-05-26 16:09:02,156,109,117,106,234
2024-05-26 16:09:02,157,110,117,108,235
2024-05-26 16:09:02,160,109,116,110,234
2024-05-26 16:09:02,160,109,113,110,234
2024-05-26 16:09:02,155,110,112,111,234
2024-05-26 16:09:02,146,108,116,109,235
2024-05-26 16:09:02,139,106,117,105,234
2024-05-26 16:09:02,134,105,121,106,234
2024-05-26 16:09:02,133,106,123,107,234
2024-05-26 16:09:02,130,106,123,107,234
2024-05-26 16:09:02,123,104,123,106,234
2024-05-26 16:09:02,115,103,122,105,235
2024-05-26 16:09:02,104,104,120,106,234
2024-05-26 16:09:02,97,105,120,108,234
2024-05-26 16:09:02,92,104,121,106,234
2024-05-26 16:09:02,94,106,122,107,234
2024-05-26 16:09:02,98,107,124,108,234
2024-05-26 16:09:02,91,107,125,110,235
2024-05-26 16:09:02,85,107,126,109,234
2024-05-26 16:09:02,82,108,126,110,234
2024-05-26 16:09:02,84,108,123,112,234
2024-05-26 16:09:02,89,106,117,111,234
2024-05-26 16:09:02,93,107,111,110,235
2024-05-26 16:09:02,92,108,110,110,234
2024-05-26 16:09:02,90,113,113,116,234
2024-05-26 16:09:02,89,111,112,116,234
2024-05-26 16:09:02,88,107,108,111,235
2024-05-26 16:09:02,94,104,103,107,234
2024-05-26 16:09:02,101,106,99,108,234
2024-05-26 16:09:02,104,104,96,107,234
2024-05-26 16:09:02,105,105,96,109,234
2024-05-26 16:09:02,110,108,94,114,234
2024-05-26 16:09:02,111,110,96,117,234
2024-05-26 16:09:02,107,110,99,115,234
2024-05-26 16:09:02,99,111,105,114,234
2024-05-26 16:09:02,94,110,112,113,234
2024-05-26 16:09:02,99,109,114,113,234
2024-05-26 16:09:02,108,108,113,114,235
2024-05-26 16:09:02,118,111,112,116,235
2024-05-26 16:09:02,120,108,111,112,234
2024-05-26 16:09:02,123,108,109,112,234
2024-05-26 16:09:02,122,108,103,112,234
2024-05-26 16:09:02,116,108,104,111,234
2024-05-26 16:09:02,110,107,108,109,234
2024-05-26 16:09:02,103,110,109,113,234
2024-05-26 16:09:02,96,112,108,114,234
2024-05-26 16:09:02,91,113,106,115,234
2024-05-26 16:09:02,85,111,106,113,235
2024-05-26 16:09:02,80,111,108,113,235
2024-05-26 16:09:02,77,114,109,115,234
2024-05-26 16:09:02,78,114,112,114,234
2024-05-26 16:09:02,79,115,116,115,234
2024-05-26 16:09:02,84,115,115,114,234
2024-05-26 16:09:02,94,115,110,113,232
2024-05-26 16:09:02,105,115,108,113,234
2024-05-26 16:09:02,112,118,110,115,235
2024-05-26 16:09:02,116,115,111,113,234
2024-05-26 16:09:02,122,111,111,110,234
2024-05-26 16:09:02,128,110,109,111,234
2024-05-26 16:09:02,129,113,108,111,234
2024-05-26 16:09:02,127,112,106,110,234
2024-05-26 16:09:02,123,112,102,112,234
2024-05-26 16:09:02,126,112,103,111,233
2024-05-26 16:09:02,133,114,108,113,234
2024-05-26 16:09:02,136,116,115,116,234
2024-05-26 16:09:02,133,115,119,117,234
2024-05-26 16:09:02,127,114,118,115,235
2024-05-26 16:09:02,124,113,112,113,234
2024-05-26 16:09:02,125,114,106,113,234
2024-05-26 16:09:02,126,118,106,117,234
2024-05-26 16:09:02,125,118,114,118,234
2024-05-26 16:09:02,120,116,118,116,234
2024-05-26 16:09:02,114,113,116,112,234
2024-05-26 16:09:02,110,114,114,113,234
2024-05-26 16:09:02,109,117,115,119,235
2024-05-26 16:09:02,109,117,117,120,234
2024-05-26 16:09:02,112,117,116,119,234
2024-05-26 16:09:02,116,116,116,115,234
2024-05-26 16:09:02,121,116,118,113,234
2024-05-26 16:09:02,127,117,125,116,234
2024-05-26 16:09:02,130,118,130,118,234
2024-05-26 16:09:02,123,116,126,115,234
2024-05-26 16:09:02,117,116,118,114,234
2024-05-26 16:09:02,113,116,113,112,233
2024-05-26 16:09:02,110,116,117,111,234
2024-05-26 16:09:02,111,118,119,114,234
2024-05-26 16:09:03,112,118,118,116,234
2024-05-26 16:09:03,106,119,118,118,234
2024-05-26 16:09:03,97,118,122,117,234
2024-05-26 16:09:03,93,116,125,114,234
2024-05-26 16:09:03,89,117,122,114,234
2024-05-26 16:09:03,85,119,117,116,234
2024-05-26 16:09:03,79,117,116,113,234
2024-05-26 16:09:03,71,116,118,112,233
2024-05-26 16:09:03,65,116,120,112,234
2024-05-26 16:09:03,59,116,118,111,235
2024-05-26 16:09:03,60,115,117,111,234
2024-05-26 16:09:03,66,116,114,112,234
2024-05-26 16:09:03,79,118,111,114,235
2024-05-26 16:09:03,88,117,106,115,234
2024-05-26 16:09:03,102,117,107,113,234
2024-05-26 16:09:03,113,115,112,111,234
2024-05-26 16:09:03,121,118,120,115,234
2024-05-26 16:09:03,124,117,124,115,234
2024-05-26 16:09:03,118,116,127,115,234
2024-05-26 16:09:03,111,115,129,113,234
2024-05-26 16:09:03,105,115,128,112,234
2024-05-26 16:09:03,101,117,125,112,235
2024-05-26 16:09:03,102,117,127,114,234
2024-05-26 16:09:03,108,118,129,114,234
2024-05-26 16:09:03,111,115,131,112,234
2024-05-26 16:09:03,110,115,137,112,234
2024-05-26 16:09:03,113,116,138,112,234
2024-05-26 16:09:03,114,119,132,116,233
2024-05-26 16:09:03,113,118,128,115,234
2024-05-26 16:09:03,111,116,126,113,234
2024-05-26 16:09:03,111,114,130,111,234
2024-05-26 16:09:03,112,115,129,111,234
2024-05-26 16:09:03,107,116,126,114,234
2024-05-26 16:09:03,101,115,123,113,234
2024-05-26 16:09:03,97,114,120,114,234
2024-05-26 16:09:03,95,114,122,114,235
2024-05-26 16:09:03,94,114,122,113,234
2024-05-26 16:09:03,92,115,123,112,234
2024-05-26 16:09:03,93,116,123,114,234
2024-05-26 16:09:03,95,117,123,115,234
2024-05-26 16:09:03,98,115,124,113,234
2024-05-26 16:09:03,99,116,124,114,235
2024-05-26 16:09:03,98,117,126,118,234
2024-05-26 16:09:03,100,119,127,116,235
2024-05-26 16:09:03,102,119,127,114,235
2024-05-26 16:09:03,101,116,129,111,234
2024-05-26 16:09:03,102,119,128,117,234
2024-05-26 16:09:03,105,121,125,119,234
2024-05-26 16:09:03,107,120,122,116,234
2024-05-26 16:09:03,110,118,122,115,234
2024-05-26 16:09:03,112,117,124,115,234
2024-05-26 16:09:03,111,115,122,113,235
2024-05-26 16:09:03,103,116,123,113,234
2024-05-26 16:09:03,101,117,126,113,234
2024-05-26 16:09:03,103,118,127,115,234
2024-05-26 16:09:03,103,120,127,117,234
2024-05-26 16:09:03,101,118,119,116,234
2024-05-26 16:09:03,98,119,113,117,234
2024-05-26 16:09:03,97,120,115,115,234
2024-05-26 16:09:03,95,121,116,115,234
2024-05-26 16:09:03,96,119,117,115,234
2024-05-26 16:09:03,103,118,117,115,234
2024-05-26 16:09:03,105,119,116,115,234
2024-05-26 16:09:03,105,121,115,115,234
2024-05-26 16:09:03,109,121,115,117,234
2024-05-26 16:09:03,115,118,117,116,234
2024-05-26 16:09:03,122,118,113,119,234
2024-05-26 16:09:03,132,118,111,119,234
2024-05-26 16:09:03,143,120,113,115,234
2024-05-26 16:09:03,150,120,115,113,234
2024-05-26 16:09:03,148,118,112,110,234
2024-05-26 16:09:03,143,119,112,112,234
2024-05-26 16:09:03,142,119,113,114,234
2024-05-26 16:09:03,142,119,115,118,234
2024-05-26 16:09:03,141,119,114,117,234
2024-05-26 16:09:03,139,118,113,116,234
2024-05-26 16:09:03,139,117,113,115,234
2024-05-26 16:09:03,134,120,113,119,235
2024-05-26 16:09:03,130,119,118,116,235
2024-05-26 16:09:03,129,117,123,115,234
2024-05-26 16:09:03,126,119,124,117,234
2024-05-26 16:09:03,117,117,125,115,234
2024-05-26 16:09:03,105,116,124,112,234
2024-05-26 16:09:03,99,117,121,113,234
2024-05-26 16:09:03,97,116,120,113,234
2024-05-26 16:09:03,95,115,118,114,234
2024-05-26 16:09:03,93,114,120,113,234
2024-05-26 16:09:03,95,116,119,115,235
2024-05-26 16:09:03,89,118,119,118,234
2024-05-26 16:09:03,83,118,118,118,234
2024-05-26 16:09:03,83,117,115,116,234
2024-05-26 16:09:03,89,116,113,115,234
2024-05-26 16:09:03,96,115,114,113,232
2024-05-26 16:09:03,104,117,113,115,234
2024-05-26 16:09:03,110,115,110,113,234
2024-05-26 16:09:03,113,114,109,113,234
2024-05-26 16:09:03,110,115,111,113,234
2024-05-26 16:09:03,111,115,115,114,234
2024-05-26 16:09:03,115,116,118,114,234
2024-05-26 16:09:03,116,116,119,113,234
2024-05-26 16:09:03,114,114,118,110,234
2024-05-26 16:09:03,110,114,118,108,234
2024-05-26 16:09:03,113,115,116,109,234
2024-05-26 16:09:03,128,116,115,110,234
2024-05-26 16:09:03,146,116,113,110,234
2024-05-26 16:09:03,158,115,108,106,234
2024-05-26 16:09:03,157,115,105,107,235
2024-05-26 16:09:03,151,115,107,108,234
2024-05-26 16:09:03,148,116,109,110,235
2024-05-26 16:09:03,151,117,107,111,234
2024-05-26 16:09:03,158,116,104,110,234
2024-05-26 16:09:03,165,115,102,108,234
2024-05-26 16:09:03,165,116,102,110,234
2024-05-26 16:09:03,161,117,104,111,234
2024-05-26 16:09:03,160,117,106,112,234
2024-05-26 16:09:03,158,115,109,110,234
2024-05-26 16:09:03,151,116,109,111,234
2024-05-26 16:09:03,139,117,109,112,234
2024-05-26 16:09:03,130,118,111,113,234
2024-05-26 16:09:03,123,116,112,111,234
2024-05-26 16:09:03,120,114,111,109,235
2024-05-26 16:09:03,121,112,113,107,234
2024-05-26 16:09:03,123,112,115,107,234
2024-05-26 16:09:03,122,114,115,109,234
2024-05-26 16:09:03,123,113,116,108,234
2024-05-26 16:09:03,127,111,116,107,235
2024-05-26 16:09:03,130,110,116,106,234
2024-05-26 16:09:03,130,111,115,106,234
2024-05-26 16:09:03,134,116,111,109,234
2024-05-26 16:09:03,142,114,115,107,235
2024-05-26 16:09:03,145,112,117,103,234
2024-05-26 16:09:03,145,111,113,103,234
2024-05-26 16:09:03,136,112,104,104,234
2024-05-26 16:09:03,123,112,100,104,234
2024-05-26 16:09:03,113,113,99,105,234
2024-05-26 16:09:03,104,112,98,106,234
2024-05-26 16:09:03,99,117,100,112,234
2024-05-26 16:09:03,93,114,102,107,235
2024-05-26 16:09:03,86,113,101,106,234
2024-05-26 16:09:03,67,114,96,104,234
2024-05-26 16:09:03,50,117,90,105,235
2024-05-26 16:09:03,26,116,84,104,234
2024-05-26 16:09:03,0,120,78,104,234
2024-05-26 16:09:03,0,129,76,111,234
2024-05-26 16:09:03,0,135,81,117,235
2024-05-26 16:09:03,0,138,87,119,234
2024-05-26 16:09:03,0,140,89,120,234
2024-05-26 16:09:03,0,141,88,119,234
2024-05-26 16:09:03,0,141,88,120,234
2024-05-26 16:09:03,0,140,88,119,234
2024-05-26 16:09:03,0,138,83,115,234
2024-05-26 16:09:03,0,135,79,110,234
2024-05-26 16:09:03,0,132,82,106,233
2024-05-26 16:09:03,0,135,81,108,234
2024-05-26 16:09:03,0,140,72,113,235
2024-05-26 16:09:03,0,139,57,108,235
2024-05-26 16:09:03,0,140,45,106,234
2024-05-26 16:09:03,0,142,38,105,234
2024-05-26 16:09:03,0,150,37,109,234
2024-05-26 16:09:03,0,154,42,110,234
2024-05-26 16:09:03,0,157,44,110,234
2024-05-26 16:09:03,0,160,41,110,234
2024-05-26 16:09:03,0,157,39,106,234
2024-05-26 16:09:03,0,150,40,99,234
2024-05-26 16:09:03,0,144,43,91,235
2024-05-26 16:09:03,0,140,43,86,234
2024-05-26 16:09:03,0,136,42,80,234
2024-05-26 16:09:03,0,138,44,79,234
2024-05-26 16:09:03,0,139,50,79,234
2024-05-26 16:09:03,0,136,57,74,234
2024-05-26 16:09:03,0,132,61,64,234
2024-05-26 16:09:03,0,125,65,57,234
2024-05-26 16:09:03,0,118,69,53,234
2024-05-26 16:09:03,0,113,71,44,234
2024-05-26 16:09:03,0,112,69,36,234
2024-05-26 16:09:03,0,103,68,27,234
2024-05-26 16:09:03,0,97,72,19,234
2024-05-26 16:09:03,0,98,73,17,234
2024-05-26 16:09:03,0,89,76,17,234
2024-05-26 16:09:03,234,89,76,17,234
2024-05-26 16:09:03,0,81,81,0,234
2024-05-26 16:09:03,0,79,82,0,234
2024-05-26 16:09:03,0,55,80,0,234
2024-05-26 16:09:03,0,49,79,0,234
2024-05-26 16:09:03,0,57,83,0,234
2024-05-26 16:09:03,0,56,90,0,234
2024-05-26 16:09:03,0,65,96,0,234
2024-05-26 16:09:03,0,79,100,0,234
2024-05-26 16:09:03,0,74,100,0,234
2024-05-26 16:09:03,0,55,97,0,234
2024-05-26 16:09:03,6,38,97,0,234
2024-05-26 16:09:03,51,34,103,0,234
2024-05-26 16:09:03,89,40,108,0,234
2024-05-26 16:09:03,114,42,120,0,235
2024-05-26 16:09:03,119,37,127,0,234
2024-05-26 16:09:03,128,26,123,0,234
2024-05-26 16:09:03,134,16,119,0,234
2024-05-26 16:09:03,134,8,119,0,234
2024-05-26 16:09:03,137,0,117,0,234
2024-05-26 16:09:03,146,0,118,0,234
2024-05-26 16:09:03,161,7,119,0,234
2024-05-26 16:09:03,180,11,120,0,234
2024-05-26 16:09:03,198,0,124,0,235
2024-05-26 16:09:03,215,0,130,0,234
2024-05-26 16:09:03,220,0,132,0,234
2024-05-26 16:09:03,224,0,137,0,234
2024-05-26 16:09:03,228,0,140,0,233
2024-05-26 16:09:03,231,0,139,0,234
2024-05-26 16:09:03,234,0,136,0,235
2024-05-26 16:09:03,233,0,133,0,235
2024-05-26 16:09:03,235,0,129,0,234
2024-05-26 16:09:03,235,0,131,0,234
2024-05-26 16:09:03,235,0,132,0,234
2024-05-26 16:09:03,235,0,135,0,235
2024-05-26 16:09:03,235,0,137,0,234
2024-05-26 16:09:03,235,0,142,0,234
2024-05-26 16:09:03,235,0,142,0,234
2024-05-26 16:09:03,235,0,141,0,234
2024-05-26 16:09:03,235,0,138,0,232
2024-05-26 16:09:03,235,0,139,0,234
2024-05-26 16:09:03,235,0,141,0,234
2024-05-26 16:09:03,235,0,140,0,234
2024-05-26 16:09:03,235,0,140,0,234
2024-05-26 16:09:03,235,0,141,0,234
2024-05-26 16:09:03,235,0,146,0,234
2024-05-26 16:09:03,235,0,151,0,234
2024-05-26 16:09:03,235,0,155,0,234
2024-05-26 16:09:03,235,0,156,0,234
2024-05-26 16:09:03,235,0,154,0,234
2024-05-26 16:09:03,235,0,151,0,234
2024-05-26 16:09:03,234,0,152,0,234
2024-05-26 16:09:03,235,0,152,0,234
2024-05-26 16:09:03,235,0,152,0,235
2024-05-26 16:09:03,235,0,152,0,234
2024-05-26 16:09:03,235,0,146,0,234
2024-05-26 16:09:03,235,0,142,0,234
2024-05-26 16:09:03,235,0,141,0,234
2024-05-26 16:09:03,235,0,140,0,234
2024-05-26 16:09:03,235,0,139,0,234
2024-05-26 16:09:03,235,0,136,0,234
2024-05-26 16:09:03,235,0,132,0,235
2024-05-26 16:09:03,235,0,129,0,234
2024-05-26 16:09:03,235,0,129,0,234
2024-05-26 16:09:03,235,0,127,0,234
2024-05-26 16:09:03,235,0,125,0,234
2024-05-26 16:09:03,235,0,128,0,234
2024-05-26 16:09:03,235,0,129,0,234
2024-05-26 16:09:03,235,0,131,0,234
2024-05-26 16:09:03,234,0,128,0,234
2024-05-26 16:09:03,236,0,128,0,235
2024-05-26 16:09:03,235,0,131,0,234
2024-05-26 16:09:03,235,0,132,0,234
2024-05-26 16:09:04,234,0,135,0,234
2024-05-26 16:09:04,235,0,137,0,234
2024-05-26 16:09:04,235,0,137,0,234
2024-05-26 16:09:04,235,0,138,0,233
2024-05-26 16:09:04,235,0,133,0,234
2024-05-26 16:09:04,235,0,126,0,234
2024-05-26 16:09:04,235,0,127,0,234
2024-05-26 16:09:04,235,0,134,0,234
2024-05-26 16:09:04,236,0,141,0,234
2024-05-26 16:09:04,235,0,140,0,235
2024-05-26 16:09:04,235,0,137,0,234
2024-05-26 16:09:04,235,0,138,0,234
2024-05-26 16:09:04,235,0,141,0,235
2024-05-26 16:09:04,235,0,143,0,234
2024-05-26 16:09:04,235,0,140,0,234
2024-05-26 16:09:04,235,0,138,0,234
2024-05-26 16:09:04,235,0,139,0,234
2024-05-26 16:09:04,235,0,142,0,235
2024-05-26 16:09:04,235,1,140,0,235
2024-05-26 16:09:04,235,0,141,0,234
2024-05-26 16:09:04,235,0,142,0,234
2024-05-26 16:09:04,235,4,144,0,234
2024-05-26 16:09:04,235,19,146,0,234
2024-05-26 16:09:04,235,26,151,0,234
2024-05-26 16:09:04,236,20,154,0,234
2024-05-26 16:09:04,236,9,155,0,234
2024-05-26 16:09:04,235,9,155,0,234
2024-05-26 16:09:04,235,12,152,0,234
2024-05-26 16:09:04,235,11,145,0,234
2024-05-26 16:09:04,235,14,137,0,234
2024-05-26 16:09:04,235,12,136,0,234
2024-05-26 16:09:04,235,18,139,0,234
2024-05-26 16:09:04,235,23,146,0,234
2024-05-26 16:09:04,235,19,150,0,234
2024-05-26 16:09:04,235,21,146,0,234
2024-05-26 16:09:04,235,22,144,0,234
2024-05-26 16:09:04,231,26,143,0,234
2024-05-26 16:09:04,227,24,146,0,234
2024-05-26 16:09:04,217,27,149,0,234
2024-05-26 16:09:04,208,31,149,0,234
2024-05-26 16:09:04,206,33,146,0,234
2024-05-26 16:09:04,207,30,143,0,235
2024-05-26 16:09:04,208,21,143,0,234
2024-05-26 16:09:04,212,21,143,0,234
2024-05-26 16:09:04,146,0,234,0,234
2024-05-26 16:09:04,211,33,147,0,234
2024-05-26 16:09:04,208,54,147,0,234
2024-05-26 16:09:04,207,56,144,0,234
2024-05-26 16:09:04,205,52,140,0,234
2024-05-26 16:09:04,202,48,139,0,234
2024-05-26 16:09:04,201,35,137,0,234
2024-05-26 16:09:04,207,35,133,0,234
2024-05-26 16:09:04,218,54,131,0,234
2024-05-26 16:09:04,229,71,134,0,234
2024-05-26 16:09:04,235,74,137,0,234
2024-05-26 16:09:04,233,73,138,1,235
2024-05-26 16:09:04,222,66,134,6,234
2024-05-26 16:09:04,210,62,133,6,234
2024-05-26 16:09:04,234,62,133,6,234
2024-05-26 16:09:04,209,65,137,18,234
2024-05-26 16:09:04,210,69,139,22,234
2024-05-26 16:09:04,209,69,135,25,235
2024-05-26 16:09:04,210,68,129,31,234
2024-05-26 16:09:04,211,69,131,34,235
2024-05-26 16:09:04,208,77,133,39,234
2024-05-26 16:09:04,201,76,135,44,234
2024-05-26 16:09:04,192,69,134,36,234
2024-05-26 16:09:04,189,75,130,34,234
2024-05-26 16:09:04,186,85,128,51,235
2024-05-26 16:09:04,186,84,127,62,234
2024-05-26 16:09:04,183,95,128,67,235
2024-05-26 16:09:04,177,97,133,67,235
2024-05-26 16:09:04,171,93,135,63,234
2024-05-26 16:09:04,163,91,136,63,234
2024-05-26 16:09:04,154,99,136,74,235
2024-05-26 16:09:04,146,104,139,81,235
2024-05-26 16:09:04,145,105,140,85,234
2024-05-26 16:09:04,145,108,138,87,234
2024-05-26 16:09:04,145,111,134,89,235
2024-05-26 16:09:04,141,113,134,92,235
2024-05-26 16:09:04,140,111,136,93,234
2024-05-26 16:09:04,139,104,133,92,234
2024-05-26 16:09:04,136,102,128,92,234
2024-05-26 16:09:04,133,105,124,95,234
2024-05-26 16:09:04,134,103,123,97,234
2024-05-26 16:09:04,140,98,123,92,234
2024-05-26 16:09:04,148,112,121,99,235
2024-05-26 16:09:04,150,124,125,112,234
2024-05-26 16:09:04,146,125,131,119,234
2024-05-26 16:09:04,146,125,134,123,234
2024-05-26 16:09:04,147,135,139,125,234
2024-05-26 16:09:04,148,138,138,129,234
2024-05-26 16:09:04,147,136,130,128,234
2024-05-26 16:09:04,145,134,125,128,233
2024-05-26 16:09:04,146,133,125,129,234
2024-05-26 16:09:04,150,135,129,136,234
2024-05-26 16:09:04,154,132,130,135,234
2024-05-26 16:09:04,160,132,132,136,235
2024-05-26 16:09:04,162,131,131,136,234
2024-05-26 16:09:04,156,127,127,136,235
2024-05-26 16:09:04,145,105,125,120,234
2024-05-26 16:09:04,131,103,125,119,234
2024-05-26 16:09:04,118,110,125,134,234
2024-05-26 16:09:04,105,133,128,150,235
2024-05-26 16:09:04,98,156,129,165,234
2024-05-26 16:09:04,89,168,128,174,234
2024-05-26 16:09:04,80,165,125,168,234
2024-05-26 16:09:04,67,155,120,161,234
2024-05-26 16:09:04,57,151,121,161,234
2024-05-26 16:09:04,47,146,125,163,234
2024-05-26 16:09:04,45,147,127,167,234
2024-05-26 16:09:04,51,146,128,168,235
2024-05-26 16:09:04,58,147,127,168,234
2024-05-26 16:09:04,64,148,124,167,235
2024-05-26 16:09:04,72,150,122,171,234
2024-05-26 16:09:04,79,144,119,171,234
2024-05-26 16:09:04,87,146,113,172,234
2024-05-26 16:09:04,93,145,110,170,234
2024-05-26 16:09:04,97,141,109,166,234
2024-05-26 16:09:04,96,140,108,167,234
2024-05-26 16:09:04,93,144,107,181,234
2024-05-26 16:09:04,85,157,108,185,234
2024-05-26 16:09:04,76,169,111,186,234
2024-05-26 16:09:04,71,170,111,187,234
2024-05-26 16:09:04,71,168,111,188,234
2024-05-26 16:09:04,76,171,113,195,234
2024-05-26 16:09:04,82,168,113,194,235
2024-05-26 16:09:04,87,158,113,190,235
2024-05-26 16:09:04,87,162,110,191,234
2024-05-26 16:09:04,85,168,107,194,235
2024-05-26 16:09:04,76,169,102,194,234
2024-05-26 16:09:04,74,167,103,197,234
2024-05-26 16:09:04,75,161,110,190,234
2024-05-26 16:09:04,83,161,116,190,234
2024-05-26 16:09:04,94,163,117,192,234
2024-05-26 16:09:04,102,167,118,198,234
2024-05-26 16:09:04,105,161,113,200,234
2024-05-26 16:09:04,104,157,108,196,234
2024-05-26 16:09:04,106,162,109,195,235
2024-05-26 16:09:04,115,166,111,197,235
2024-05-26 16:09:04,131,173,112,202,234
2024-05-26 16:09:04,139,174,112,204,234
2024-05-26 16:09:04,142,169,114,205,235
2024-05-26 16:09:04,140,168,114,201,234
2024-05-26 16:09:04,135,167,113,199,235
2024-05-26 16:09:04,134,176,115,207,234
2024-05-26 16:09:04,128,175,116,204,234
2024-05-26 16:09:04,120,169,117,201,234
2024-05-26 16:09:04,109,168,116,203,234
2024-05-26 16:09:04,100,173,113,207,235
2024-05-26 16:09:04,92,175,112,209,235
2024-05-26 16:09:04,80,168,110,204,235
2024-05-26 16:09:04,75,169,110,204,234
2024-05-26 16:09:04,76,172,111,208,234
2024-05-26 16:09:04,84,180,111,211,234
2024-05-26 16:09:04,90,175,110,211,234
2024-05-26 16:09:04,86,161,113,205,234
2024-05-26 16:09:04,75,163,113,203,234
2024-05-26 16:09:04,68,174,111,210,235
2024-05-26 16:09:04,68,177,107,210,235
2024-05-26 16:09:04,72,175,105,208,234
2024-05-26 16:09:04,64,163,113,205,233
2024-05-26 16:09:04,59,172,110,208,234
2024-05-26 16:09:04,60,178,105,212,235
2024-05-26 16:09:04,64,173,106,212,235
2024-05-26 16:09:04,59,169,105,209,235
2024-05-26 16:09:04,47,162,106,204,234
2024-05-26 16:09:04,38,162,109,203,234
2024-05-26 16:09:04,37,165,111,204,234
2024-05-26 16:09:04,45,171,109,204,235
2024-05-26 16:09:04,58,176,103,208,234
2024-05-26 16:09:04,69,174,98,210,234
2024-05-26 16:09:04,81,171,96,211,235
2024-05-26 16:09:04,89,168,100,209,234
2024-05-26 16:09:04,93,167,102,204,235
2024-05-26 16:09:04,96,170,100,207,234
2024-05-26 16:09:04,95,168,100,208,234
2024-05-26 16:09:04,90,163,98,210,234
2024-05-26 16:09:04,89,163,99,205,235
2024-05-26 16:09:04,96,164,100,200,234
2024-05-26 16:09:04,119,169,103,209,234
2024-05-26 16:09:04,130,175,105,214,234
2024-05-26 16:09:04,133,175,107,215,235
2024-05-26 16:09:04,131,171,107,210,234
2024-05-26 16:09:04,132,163,111,204,234
2024-05-26 16:09:04,135,165,117,202,234
2024-05-26 16:09:04,137,174,120,209,233
2024-05-26 16:09:04,138,175,118,215,234
2024-05-26 16:09:04,135,173,117,215,234
2024-05-26 16:09:04,130,175,116,215,234
2024-05-26 16:09:04,129,170,117,209,234
2024-05-26 16:09:04,129,171,117,209,235
2024-05-26 16:09:04,127,173,119,212,235
2024-05-26 16:09:04,131,169,117,208,235
2024-05-26 16:09:04,134,161,113,203,235
2024-05-26 16:09:04,133,159,107,202,234
2024-05-26 16:09:04,127,156,106,202,234
2024-05-26 16:09:04,116,166,107,209,234
2024-05-26 16:09:04,108,173,109,211,235
2024-05-26 16:09:04,101,173,111,208,234
2024-05-26 16:09:04,92,169,111,202,234
2024-05-26 16:09:04,89,168,108,201,235
2024-05-26 16:09:04,88,170,107,205,234
2024-05-26 16:09:04,92,168,110,206,235
2024-05-26 16:09:04,94,163,114,202,234
2024-05-26 16:09:04,96,161,113,198,234
2024-05-26 16:09:04,100,161,110,198,235
2024-05-26 16:09:04,99,162,106,197,235
2024-05-26 16:09:04,96,164,105,202,234
2024-05-26 16:09:04,92,152,105,201,234
2024-05-26 16:09:04,95,155,105,198,235
2024-05-26 16:09:04,107,171,100,202,235
2024-05-26 16:09:04,118,169,95,203,235
2024-05-26 16:09:04,128,163,95,197,234
2024-05-26 16:09:04,132,163,103,196,234
2024-05-26 16:09:04,133,167,110,198,235
2024-05-26 16:09:04,132,167,112,200,232
2024-05-26 16:09:04,128,162,111,201,235
2024-05-26 16:09:04,121,156,109,193,234
2024-05-26 16:09:04,118,156,104,192,234
2024-05-26 16:09:04,120,160,100,197,234
2024-05-26 16:09:04,123,165,100,202,234
2024-05-26 16:09:04,122,165,102,202,234
2024-05-26 16:09:04,116,165,105,201,235
2024-05-26 16:09:04,108,155,106,190,235
2024-05-26 16:09:04,96,151,102,189,234
2024-05-26 16:09:04,86,155,102,189,234
2024-05-26 16:09:04,80,163,102,197,235
2024-05-26 16:09:04,81,167,104,202,235
2024-05-26 16:09:04,87,168,101,201,235
2024-05-26 16:09:04,92,162,97,197,234
2024-05-26 16:09:04,94,158,92,196,234
2024-05-26 16:09:04,95,160,94,193,234
2024-05-26 16:09:04,100,163,99,192,234
2024-05-26 16:09:04,109,162,101,189,234
2024-05-26 16:09:04,110,166,103,191,234
2024-05-26 16:09:04,106,172,103,196,234
2024-05-26 16:09:04,109,166,102,193,234
2024-05-26 16:09:04,116,162,104,190,235
2024-05-26 16:09:04,117,155,104,180,235
2024-05-26 16:09:04,109,158,101,176,235
2024-05-26 16:09:04,98,154,100,182,234
2024-05-26 16:09:04,89,153,101,186,235
2024-05-26 16:09:04,82,173,106,189,234
2024-05-26 16:09:04,78,178,107,190,234
2024-05-26 16:09:04,75,168,105,185,234
2024-05-26 16:09:04,76,167,105,183,234
2024-05-26 16:09:04,83,173,107,188,234
2024-05-26 16:09:05,92,173,112,190,234
2024-05-26 16:09:05,93,169,116,187,234
2024-05-26 16:09:05,92,167,115,185,234
2024-05-26 16:09:05,93,166,111,185,234
2024-05-26 16:09:05,93,162,113,186,234
2024-05-26 16:09:05,90,162,121,184,234
2024-05-26 16:09:05,84,157,120,181,235
2024-05-26 16:09:05,83,159,118,183,235
2024-05-26 16:09:05,86,156,118,178,234
2024-05-26 16:09:05,87,159,119,177,234
2024-05-26 16:09:05,84,164,119,179,235
2024-05-26 16:09:05,83,169,115,183,235
2024-05-26 16:09:05,85,162,113,177,235
2024-05-26 16:09:05,85,153,118,173,235
2024-05-26 16:09:05,84,157,124,177,234
2024-05-26 16:09:05,87,171,126,183,234
2024-05-26 16:09:05,95,169,125,177,234
2024-05-26 16:09:05,107,158,120,174,234
2024-05-26 16:09:05,115,148,120,170,234
2024-05-26 16:09:05,110,160,121,177,234
2024-05-26 16:09:05,104,172,124,181,234
2024-05-26 16:09:05,100,167,127,177,234
2024-05-26 16:09:05,101,163,129,171,235
2024-05-26 16:09:05,110,164,129,170,234
2024-05-26 16:09:05,117,166,126,174,235
2024-05-26 16:09:05,120,167,121,179,234
2024-05-26 16:09:05,121,162,116,171,234
2024-05-26 16:09:05,124,162,115,169,234
2024-05-26 16:09:05,126,166,117,172,234
2024-05-26 16:09:05,128,166,118,173,234
2024-05-26 16:09:05,133,154,118,167,234
2024-05-26 16:09:05,130,146,118,159,235
2024-05-26 16:09:05,125,158,121,163,234
2024-05-26 16:09:05,122,161,119,167,234
2024-05-26 16:09:05,116,166,115,171,234
2024-05-26 16:09:05,113,167,116,170,234
2024-05-26 16:09:05,110,160,118,166,234
2024-05-26 16:09:05,113,156,119,161,235
2024-05-26 16:09:05,121,154,120,157,234
2024-05-26 16:09:05,123,154,120,160,234
2024-05-26 16:09:05,116,158,119,160,234
2024-05-26 16:09:05,103,154,114,158,234
2024-05-26 16:09:05,91,153,112,156,234
2024-05-26 16:09:05,86,157,108,158,234
2024-05-26 16:09:05,81,156,107,161,235
2024-05-26 16:09:05,77,158,111,163,234
2024-05-26 16:09:05,78,157,117,158,234
2024-05-26 16:09:05,84,155,121,155,234
2024-05-26 16:09:05,91,151,126,154,234
2024-05-26 16:09:05,99,151,132,154,235
2024-05-26 16:09:05,106,154,134,155,234
2024-05-26 16:09:05,114,150,131,154,234
2024-05-26 16:09:05,119,148,128,152,234
2024-05-26 16:09:05,121,148,124,157,234
2024-05-26 16:09:05,127,144,117,153,234
2024-05-26 16:09:05,139,142,115,152,234
2024-05-26 16:09:05,145,148,119,155,234
2024-05-26 16:09:05,144,159,123,156,234
2024-05-26 16:09:05,131,159,127,155,234
2024-05-26 16:09:05,120,155,128,153,235
2024-05-26 16:09:05,116,154,128,155,234
2024-05-26 16:09:05,117,147,128,152,234
2024-05-26 16:09:05,121,140,127,143,234
2024-05-26 16:09:05,122,144,125,146,234
2024-05-26 16:09:05,120,150,123,149,235
2024-05-26 16:09:05,115,151,122,150,234
2024-05-26 16:09:05,106,149,120,147,234
2024-05-26 16:09:05,100,145,119,143,234
2024-05-26 16:09:05,97,141,121,145,235
2024-05-26 16:09:05,90,143,123,148,235
2024-05-26 16:09:05,86,147,124,150,234
2024-05-26 16:09:05,92,144,122,149,235
2024-05-26 16:09:05,101,144,117,146,234
2024-05-26 16:09:05,109,147,117,152,235
2024-05-26 16:09:05,113,150,117,154,234
2024-05-26 16:09:05,112,146,114,151,234
2024-05-26 16:09:05,105,143,113,144,234
2024-05-26 16:09:05,96,139,114,140,234
2024-05-26 16:09:05,89,137,114,138,235
2024-05-26 16:09:05,95,145,112,144,234
2024-05-26 16:09:05,102,149,113,149,234
2024-05-26 16:09:05,101,149,118,150,235
2024-05-26 16:09:05,92,146,123,147,234
2024-05-26 16:09:05,79,142,125,146,235
2024-05-26 16:09:05,67,136,123,141,234
2024-05-26 16:09:05,60,136,120,135,234
2024-05-26 16:09:05,57,138,117,134,234
2024-05-26 16:09:05,53,148,109,145,235
2024-05-26 16:09:05,47,144,103,143,235
2024-05-26 16:09:05,48,140,103,139,235
2024-05-26 16:09:05,60,137,107,137,234
2024-05-26 16:09:05,73,132,111,135,235
2024-05-26 16:09:05,84,123,114,128,235
2024-05-26 16:09:05,92,129,116,130,234
2024-05-26 16:09:05,95,143,116,142,234
2024-05-26 16:09:05,103,149,113,148,234
2024-05-26 16:09:05,105,146,112,146,234
2024-05-26 16:09:05,104,143,112,145,235
2024-05-26 16:09:05,103,136,112,140,234
2024-05-26 16:09:05,107,131,115,136,235
2024-05-26 16:09:05,113,134,118,136,234
2024-05-26 16:09:05,122,139,120,140,234
2024-05-26 16:09:05,133,139,120,142,234
2024-05-26 16:09:05,143,137,124,140,234
2024-05-26 16:09:05,145,136,126,139,235
2024-05-26 16:09:05,147,135,127,139,234
2024-05-26 16:09:05,153,135,125,139,234
2024-05-26 16:09:05,162,136,124,138,234
2024-05-26 16:09:05,172,135,119,137,234
2024-05-26 16:09:05,182,134,116,137,234
2024-05-26 16:09:05,179,134,115,139,234
2024-05-26 16:09:05,171,132,111,140,234
2024-05-26 16:09:05,164,131,110,140,234
2024-05-26 16:09:05,162,130,112,136,234
2024-05-26 16:09:05,159,132,116,137,235
2024-05-26 16:09:05,153,135,120,142,234
2024-05-26 16:09:05,142,132,120,140,234
2024-05-26 16:09:05,136,127,121,139,235
2024-05-26 16:09:05,130,123,124,136,234
2024-05-26 16:09:05,126,128,123,132,234
2024-05-26 16:09:05,129,133,123,136,234
2024-05-26 16:09:05,135,136,118,141,235
2024-05-26 16:09:05,136,129,115,137,234
2024-05-26 16:09:05,132,127,117,134,235
2024-05-26 16:09:05,127,125,123,133,234
2024-05-26 16:09:05,119,124,128,133,234
2024-05-26 16:09:05,113,123,129,131,234
2024-05-26 16:09:05,109,124,130,133,235
2024-05-26 16:09:05,108,125,132,136,234
2024-05-26 16:09:05,108,126,127,137,235
2024-05-26 16:09:05,111,125,119,135,235
2024-05-26 16:09:05,116,124,112,134,234
2024-05-26 16:09:05,118,123,110,133,234
2024-05-26 16:09:05,118,123,114,133,234
2024-05-26 16:09:05,122,122,121,134,235
2024-05-26 16:09:05,124,122,124,132,234
2024-05-26 16:09:05,124,120,122,131,234
2024-05-26 16:09:05,119,121,125,133,234
2024-05-26 16:09:05,110,118,132,131,234
2024-05-26 16:09:05,102,118,139,131,235
2024-05-26 16:09:05,105,117,136,131,234
2024-05-26 16:09:05,101,118,132,131,234
2024-05-26 16:09:05,91,118,127,132,234
2024-05-26 16:09:05,83,119,122,133,234
2024-05-26 16:09:05,81,120,120,133,234
2024-05-26 16:09:05,86,118,116,133,234
2024-05-26 16:09:05,95,117,115,131,234
2024-05-26 16:09:05,106,115,120,129,234
2024-05-26 16:09:05,115,114,122,130,234
2024-05-26 16:09:05,122,114,120,131,234
2024-05-26 16:09:05,128,113,114,131,235
2024-05-26 16:09:05,134,112,115,130,234
2024-05-26 16:09:05,136,109,122,129,235
2024-05-26 16:09:05,136,106,124,128,234
2024-05-26 16:09:05,137,105,122,130,234
2024-05-26 16:09:05,141,103,127,132,234
2024-05-26 16:09:05,144,102,132,132,234
2024-05-26 16:09:05,145,101,131,131,234
2024-05-26 16:09:05,142,100,127,130,234
2024-05-26 16:09:05,140,100,124,132,234
2024-05-26 16:09:05,136,100,121,132,234
2024-05-26 16:09:05,132,99,118,130,234
2024-05-26 16:09:05,126,98,119,129,234
2024-05-26 16:09:05,118,99,120,129,234
2024-05-26 16:09:05,113,99,122,130,234
2024-05-26 16:09:05,117,99,124,130,235
2024-05-26 16:09:05,123,97,126,129,235
2024-05-26 16:09:05,126,96,124,129,234
2024-05-26 16:09:05,128,96,123,130,234
2024-05-26 16:09:05,133,96,122,131,235
2024-05-26 16:09:05,139,97,123,132,234
2024-05-26 16:09:05,147,96,128,131,235
2024-05-26 16:09:05,140,95,133,130,234
2024-05-26 16:09:05,129,94,132,130,234
2024-05-26 16:09:05,125,94,126,129,234
2024-05-26 16:09:05,131,93,121,129,235
2024-05-26 16:09:05,144,92,117,128,234
2024-05-26 16:09:05,159,92,116,128,234
2024-05-26 16:09:05,171,93,117,129,234
2024-05-26 16:09:05,175,94,121,130,234
2024-05-26 16:09:05,169,93,127,129,234
2024-05-26 16:09:05,158,92,130,129,235
2024-05-26 16:09:05,150,92,133,128,235
2024-05-26 16:09:05,144,92,134,130,235
2024-05-26 16:09:05,141,93,132,132,234
2024-05-26 16:09:05,144,93,135,132,234
2024-05-26 16:09:05,149,93,136,131,234
2024-05-26 16:09:05,153,90,133,130,234
2024-05-26 16:09:05,161,90,132,130,234
2024-05-26 16:09:05,175,89,131,131,234
2024-05-26 16:09:05,188,89,133,133,234
2024-05-26 16:09:05,195,89,133,131,234
2024-05-26 16:09:05,195,90,131,132,234
2024-05-26 16:09:05,188,91,133,132,234
2024-05-26 16:09:05,181,92,137,134,234
2024-05-26 16:09:05,177,94,136,134,234
2024-05-26 16:09:05,178,94,129,135,234
2024-05-26 16:09:05,182,93,124,134,234
2024-05-26 16:09:05,192,94,122,136,234
2024-05-26 16:09:05,208,98,123,139,234
2024-05-26 16:09:05,221,100,128,141,235
2024-05-26 16:09:05,227,100,130,141,234
2024-05-26 16:09:05,228,101,127,142,234
2024-05-26 16:09:05,224,103,126,143,234
2024-05-26 16:09:05,220,104,128,144,234
2024-05-26 16:09:05,219,105,128,146,234
2024-05-26 16:09:05,220,106,127,146,234
2024-05-26 16:09:05,220,107,128,145,234
2024-05-26 16:09:05,220,109,131,147,234
2024-05-26 16:09:05,216,112,132,150,235
2024-05-26 16:09:05,205,113,131,152,234
2024-05-26 16:09:05,193,112,133,153,234
2024-05-26 16:09:05,186,112,133,153,234
2024-05-26 16:09:05,183,113,133,155,235
2024-05-26 16:09:05,178,114,137,156,234
2024-05-26 16:09:05,170,116,138,158,234
2024-05-26 16:09:05,158,115,137,159,234
2024-05-26 16:09:05,145,114,138,158,234
2024-05-26 16:09:05,138,115,140,161,234
2024-05-26 16:09:05,134,119,139,165,234
2024-05-26 16:09:05,131,120,137,166,234
2024-05-26 16:09:05,132,120,137,165,235
2024-05-26 16:09:05,138,120,135,165,234
2024-05-26 16:09:05,141,121,135,165,234
2024-05-26 16:09:05,141,122,136,167,234
2024-05-26 16:09:05,146,125,135,169,234
2024-05-26 16:09:05,155,127,131,170,234
2024-05-26 16:09:05,160,128,128,172,234
2024-05-26 16:09:05,165,131,128,173,234
2024-05-26 16:09:05,172,134,129,176,235
2024-05-26 16:09:05,178,136,129,178,234
2024-05-26 16:09:05,183,136,127,177,234
2024-05-26 16:09:05,186,135,122,177,234
2024-05-26 16:09:05,183,136,118,178,235
2024-05-26 16:09:05,180,140,117,180,234
2024-05-26 16:09:05,181,142,121,182,234
2024-05-26 16:09:05,185,141,123,181,234
2024-05-26 16:09:05,190,142,121,182,234
2024-05-26 16:09:05,192,143,121,184,234
2024-05-26 16:09:05,189,144,122,185,235
2024-05-26 16:09:05,183,145,123,185,234
2024-05-26 16:09:05,180,146,124,185,234
2024-05-26 16:09:05,172,148,128,185,234
2024-05-26 16:09:05,165,150,125,186,234
2024-05-26 16:09:05,162,151,119,188,234
2024-05-26 16:09:05,169,153,115,190,234
2024-05-26 16:09:05,171,154,115,190,234
2024-05-26 16:09:05,164,156,114,190,234
2024-05-26 16:09:05,152,158,115,191,235
2024-05-26 16:09:05,144,160,115,193,234
2024-05-26 16:09:06,138,162,115,194,234
2024-05-26 16:09:06,131,163,112,195,234
2024-05-26 16:09:06,133,165,110,196,234
2024-05-26 16:09:06,131,167,106,197,234
2024-05-26 16:09:06,121,168,111,199,235
2024-05-26 16:09:06,107,168,118,200,234
2024-05-26 16:09:06,100,169,117,201,234
2024-05-26 16:09:06,99,170,118,201,234
2024-05-26 16:09:06,99,171,115,202,234
2024-05-26 16:09:06,96,173,109,204,234
2024-05-26 16:09:06,91,175,107,206,234
2024-05-26 16:09:06,86,176,108,207,234
2024-05-26 16:09:06,82,175,111,208,235
2024-05-26 16:09:06,82,176,111,209,234
2024-05-26 16:09:06,84,177,110,210,234
2024-05-26 16:09:06,89,180,110,212,234
2024-05-26 16:09:06,95,179,111,212,235
2024-05-26 16:09:06,99,180,111,211,234
2024-05-26 16:09:06,101,181,105,212,234
2024-05-26 16:09:06,101,183,99,212,234
2024-05-26 16:09:06,99,184,96,213,234
2024-05-26 16:09:06,96,185,98,212,234
2024-05-26 16:09:06,89,185,102,212,235
2024-05-26 16:09:06,82,185,105,212,234
2024-05-26 16:09:06,76,186,107,213,235
2024-05-26 16:09:06,70,188,109,214,234
2024-05-26 16:09:06,59,188,114,214,234
2024-05-26 16:09:06,57,188,120,214,235
2024-05-26 16:09:06,57,189,117,214,234
2024-05-26 16:09:06,55,191,109,215,235
2024-05-26 16:09:06,55,193,107,216,235
2024-05-26 16:09:06,59,194,108,216,234
2024-05-26 16:09:06,63,193,108,214,234
2024-05-26 16:09:06,64,193,107,213,234
2024-05-26 16:09:06,62,194,105,212,234
2024-05-26 16:09:06,60,196,110,213,234
2024-05-26 16:09:06,53,197,112,215,234
2024-05-26 16:09:06,44,197,106,214,234
2024-05-26 16:09:06,40,197,102,215,234
2024-05-26 16:09:06,43,198,100,216,234
2024-05-26 16:09:06,51,199,98,215,234
2024-05-26 16:09:06,59,199,98,215,234
2024-05-26 16:09:06,65,198,100,215,234
2024-05-26 16:09:06,68,199,103,215,234
2024-05-26 16:09:06,63,200,106,216,235
2024-05-26 16:09:06,53,202,108,216,234
2024-05-26 16:09:06,40,201,108,214,235
2024-05-26 16:09:06,30,200,109,212,235
2024-05-26 16:09:06,28,200,111,211,234
2024-05-26 16:09:06,27,201,110,211,234
2024-05-26 16:09:06,29,202,107,212,234
2024-05-26 16:09:06,35,201,103,211,234
2024-05-26 16:09:06,38,200,100,208,235
2024-05-26 16:09:06,39,199,101,208,235
2024-05-26 16:09:06,36,198,104,208,234
2024-05-26 16:09:06,35,199,111,210,234
2024-05-26 16:09:06,35,198,112,210,235
2024-05-26 16:09:06,36,198,110,210,234
2024-05-26 16:09:06,30,198,109,211,234
2024-05-26 16:09:06,20,199,104,211,234
2024-05-26 16:09:06,199,104,211,235,234
2024-05-26 16:09:06,15,199,106,209,234
2024-05-26 16:09:06,21,198,108,209,234
2024-05-26 16:09:06,30,200,106,209,234
2024-05-26 16:09:06,43,201,103,209,234
2024-05-26 16:09:06,56,200,101,208,234
2024-05-26 16:09:06,66,199,101,206,235
2024-05-26 16:09:06,68,198,102,203,234
2024-05-26 16:09:06,61,197,102,203,235
2024-05-26 16:09:06,52,198,103,202,234
2024-05-26 16:09:06,47,197,103,202,234
2024-05-26 16:09:06,46,197,100,201,234
2024-05-26 16:09:06,45,196,97,200,235
2024-05-26 16:09:06,48,197,96,200,234
2024-05-26 16:09:06,54,197,97,200,234
2024-05-26 16:09:06,60,197,99,199,234
2024-05-26 16:09:06,57,195,102,196,234
2024-05-26 16:09:06,51,194,105,195,234
2024-05-26 16:09:06,45,193,105,194,235
2024-05-26 16:09:06,39,193,101,196,234
2024-05-26 16:09:06,42,192,99,196,234
2024-05-26 16:09:06,50,191,98,194,234
2024-05-26 16:09:06,58,190,100,191,235
2024-05-26 16:09:06,64,189,101,190,235
2024-05-26 16:09:06,67,189,102,190,235
2024-05-26 16:09:06,71,188,103,189,234
2024-05-26 16:09:06,77,188,101,188,234
2024-05-26 16:09:06,80,186,98,188,235
2024-05-26 16:09:06,78,186,97,188,234
2024-05-26 16:09:06,82,186,97,188,234
2024-05-26 16:09:06,92,185,101,187,235
2024-05-26 16:09:06,95,184,107,184,234
2024-05-26 16:09:06,93,183,107,183,234
2024-05-26 16:09:06,92,184,103,183,235
2024-05-26 16:09:06,92,186,101,183,235
2024-05-26 16:09:06,95,186,102,184,234
2024-05-26 16:09:06,98,183,105,182,234
2024-05-26 16:09:06,96,180,106,179,234
2024-05-26 16:09:06,92,179,106,177,234
2024-05-26 16:09:06,87,177,108,179,234
2024-05-26 16:09:06,84,177,110,178,234
2024-05-26 16:09:06,81,176,111,178,234
2024-05-26 16:09:06,75,175,111,177,234
2024-05-26 16:09:06,68,173,107,175,235
2024-05-26 16:09:06,65,174,103,175,235
2024-05-26 16:09:06,66,174,101,174,234
2024-05-26 16:09:06,75,173,102,172,234
2024-05-26 16:09:06,90,172,102,171,234
2024-05-26 16:09:06,102,172,103,172,235
2024-05-26 16:09:06,103,172,106,173,234
2024-05-26 16:09:06,99,171,107,171,235
2024-05-26 16:09:06,96,169,110,169,235
2024-05-26 16:09:06,96,168,111,168,235
2024-05-26 16:09:06,96,168,108,168,235
2024-05-26 16:09:06,104,168,105,170,234
2024-05-26 16:09:06,118,168,104,170,234
2024-05-26 16:09:06,131,167,105,166,234
2024-05-26 16:09:06,133,166,105,164,234
2024-05-26 16:09:06,128,165,105,163,235
2024-05-26 16:09:06,121,166,102,162,234
2024-05-26 16:09:06,104,165,101,161,234
2024-05-26 16:09:06,90,163,103,158,234
2024-05-26 16:09:06,82,161,107,156,234
2024-05-26 16:09:06,80,161,109,155,234
2024-05-26 16:09:06,81,161,111,155,234
2024-05-26 16:09:06,82,161,116,155,235
2024-05-26 16:09:06,81,158,119,153,234
2024-05-26 16:09:06,81,156,120,150,235
2024-05-26 16:09:06,84,155,120,148,234
2024-05-26 16:09:06,86,156,119,148,235
2024-05-26 16:09:06,86,156,124,148,234
2024-05-26 16:09:06,87,155,128,147,235
2024-05-26 16:09:06,93,154,126,147,235
2024-05-26 16:09:06,98,154,118,147,234
2024-05-26 16:09:06,98,154,112,146,234
2024-05-26 16:09:06,98,153,112,145,234
2024-05-26 16:09:06,98,152,115,143,234
2024-05-26 16:09:06,93,150,113,140,234
2024-05-26 16:09:06,89,148,114,138,235
2024-05-26 16:09:06,91,146,114,138,234
2024-05-26 16:09:06,91,145,114,138,234
2024-05-26 16:09:06,89,145,110,136,234
2024-05-26 16:09:06,85,144,108,135,234
2024-05-26 16:09:06,88,143,111,135,234
2024-05-26 16:09:06,97,142,114,135,234
2024-05-26 16:09:06,106,141,113,134,233
2024-05-26 16:09:06,110,139,113,132,234
2024-05-26 16:09:06,111,138,111,131,235
2024-05-26 16:09:06,108,138,110,130,234
2024-05-26 16:09:06,107,138,112,131,234
2024-05-26 16:09:06,107,137,114,131,235
2024-05-26 16:09:06,100,136,119,129,234
2024-05-26 16:09:06,92,135,118,126,234
2024-05-26 16:09:06,85,134,113,126,234
2024-05-26 16:09:06,83,134,109,127,234
2024-05-26 16:09:06,84,133,108,127,235
2024-05-26 16:09:06,84,132,109,125,235
2024-05-26 16:09:06,85,130,113,123,235
2024-05-26 16:09:06,90,129,116,122,234
2024-05-26 16:09:06,93,129,118,124,235
2024-05-26 16:09:06,92,130,117,125,235
2024-05-26 16:09:06,87,128,116,125,234
2024-05-26 16:09:06,85,126,117,124,234
2024-05-26 16:09:06,89,125,117,124,234
2024-05-26 16:09:06,100,125,113,125,235
2024-05-26 16:09:06,109,125,110,126,235
2024-05-26 16:09:06,119,124,112,125,234
2024-05-26 16:09:06,132,123,114,123,234
2024-05-26 16:09:06,139,123,111,123,234
2024-05-26 16:09:06,144,123,110,123,234
2024-05-26 16:09:06,150,123,112,122,235
2024-05-26 16:09:06,144,121,116,120,234
2024-05-26 16:09:06,124,118,119,118,235
2024-05-26 16:09:06,109,119,124,118,234
2024-05-26 16:09:06,104,119,125,118,235
2024-05-26 16:09:06,104,119,121,118,234
2024-05-26 16:09:06,102,119,113,116,234
2024-05-26 16:09:06,97,117,109,114,235
2024-05-26 16:09:06,88,116,112,114,234
2024-05-26 16:09:06,83,116,115,114,235
2024-05-26 16:09:06,83,116,121,114,235
2024-05-26 16:09:06,88,116,124,113,235
2024-05-26 16:09:06,95,115,122,112,234
2024-05-26 16:09:06,94,114,121,111,234
2024-05-26 16:09:06,90,113,120,109,234
2024-05-26 16:09:06,92,113,121,108,234
2024-05-26 16:09:06,97,112,122,106,234
2024-05-26 16:09:06,105,111,121,105,235
2024-05-26 16:09:06,115,110,118,104,234
2024-05-26 16:09:06,121,111,119,104,234
2024-05-26 16:09:06,114,111,117,105,234
2024-05-26 16:09:06,99,110,115,104,234
2024-05-26 16:09:06,86,109,114,104,234
2024-05-26 16:09:06,75,109,114,104,235
2024-05-26 16:09:06,71,108,115,104,234
2024-05-26 16:09:06,74,108,117,104,234
2024-05-26 16:09:06,77,107,121,103,234
2024-05-26 16:09:06,84,105,121,102,234
2024-05-26 16:09:06,92,104,120,102,234
2024-05-26 16:09:06,94,104,122,103,234
2024-05-26 16:09:06,89,104,123,103,235
2024-05-26 16:09:06,85,103,122,102,235
2024-05-26 16:09:06,86,101,122,100,234
2024-05-26 16:09:06,95,101,123,99,235
2024-05-26 16:09:06,102,102,118,100,234
2024-05-26 16:09:06,104,103,114,101,234
2024-05-26 16:09:06,101,102,110,99,234
2024-05-26 16:09:06,99,100,107,98,234
2024-05-26 16:09:06,96,100,108,96,234
2024-05-26 16:09:06,97,100,111,98,235
2024-05-26 16:09:06,101,100,109,100,235
2024-05-26 16:09:06,103,100,105,99,234
2024-05-26 16:09:06,99,99,103,97,235
2024-05-26 16:09:06,99,98,108,97,235
2024-05-26 16:09:06,104,99,112,97,235
2024-05-26 16:09:06,112,100,114,98,234
2024-05-26 16:09:06,119,99,114,97,234
2024-05-26 16:09:06,120,98,114,96,234
2024-05-26 16:09:06,115,98,112,96,234
2024-05-26 16:09:06,108,98,109,96,234
2024-05-26 16:09:06,104,98,111,97,235
2024-05-26 16:09:06,101,97,112,97,235
2024-05-26 16:09:06,103,95,112,95,234
2024-05-26 16:09:06,113,96,110,96,234
2024-05-26 16:09:06,130,96,108,96,235
2024-05-26 16:09:06,139,96,106,96,234
2024-05-26 16:09:06,137,95,108,94,234
2024-05-26 16:09:06,129,95,113,93,234
2024-05-26 16:09:06,123,95,119,93,235
2024-05-26 16:09:06,122,96,122,93,234
2024-05-26 16:09:06,125,96,123,93,234
2024-05-26 16:09:06,129,94,122,92,235
2024-05-26 16:09:06,131,91,120,90,235
2024-05-26 16:09:06,135,90,119,91,235
2024-05-26 16:09:06,140,90,115,92,234
2024-05-26 16:09:06,144,90,113,91,235
2024-05-26 16:09:06,150,89,108,89,235
2024-05-26 16:09:06,155,90,104,89,234
2024-05-26 16:09:06,157,91,107,89,234
2024-05-26 16:09:06,159,90,112,91,234
2024-05-26 16:09:06,158,89,116,91,234
2024-05-26 16:09:06,157,89,118,91,234
2024-05-26 16:09:06,159,88,115,89,234
2024-05-26 16:09:06,162,87,111,89,234
2024-05-26 16:09:06,164,88,109,90,234
2024-05-26 16:09:06,164,89,111,91,235
2024-05-26 16:09:06,157,88,111,89,234
2024-05-26 16:09:06,147,88,110,88,235
2024-05-26 16:09:06,140,88,112,88,235
2024-05-26 16:09:06,142,88,111,89,235
2024-05-26 16:09:07,147,88,110,89,235
2024-05-26 16:09:07,146,87,113,87,234
2024-05-26 16:09:07,140,87,116,86,234
2024-05-26 16:09:07,135,87,119,86,235
2024-05-26 16:09:07,131,88,117,87,235
2024-05-26 16:09:07,124,89,120,88,234
2024-05-26 16:09:07,116,88,124,87,234
2024-05-26 16:09:07,109,87,128,85,234
2024-05-26 16:09:07,103,86,127,85,234
2024-05-26 16:09:07,93,86,127,84,234
2024-05-26 16:09:07,84,85,129,86,235
2024-05-26 16:09:07,75,85,129,85,234
2024-05-26 16:09:07,74,84,126,85,234
2024-05-26 16:09:07,78,85,124,84,234
2024-05-26 16:09:07,77,86,122,85,235
2024-05-26 16:09:07,76,86,122,84,234
2024-05-26 16:09:07,77,84,125,82,234
2024-05-26 16:09:07,81,84,128,82,234
2024-05-26 16:09:07,83,84,129,83,234
2024-05-26 16:09:07,84,84,127,84,235
2024-05-26 16:09:07,84,84,122,84,234
2024-05-26 16:09:07,80,83,118,83,234
2024-05-26 16:09:07,77,83,113,82,234
2024-05-26 16:09:07,71,83,109,81,234
2024-05-26 16:09:07,62,83,112,81,234
2024-05-26 16:09:07,60,84,124,82,234
2024-05-26 16:09:07,62,83,132,80,234
2024-05-26 16:09:07,68,83,128,81,234
2024-05-26 16:09:07,76,84,123,82,234
2024-05-26 16:09:07,86,86,123,82,235
2024-05-26 16:09:07,95,86,124,82,234
2024-05-26 16:09:07,107,85,125,80,234
2024-05-26 16:09:07,114,84,127,80,234
2024-05-26 16:09:07,118,83,124,80,234
2024-05-26 16:09:07,116,83,119,80,235
2024-05-26 16:09:07,113,82,116,80,235
2024-05-26 16:09:07,119,81,120,79,234
2024-05-26 16:09:07,130,81,122,79,234
2024-05-26 16:09:07,139,81,121,81,234
2024-05-26 16:09:07,147,82,122,82,234
2024-05-26 16:09:07,158,82,123,82,234
2024-05-26 16:09:07,165,83,125,80,235
2024-05-26 16:09:07,167,83,125,79,235
2024-05-26 16:09:07,165,83,124,79,234
2024-05-26 16:09:07,161,83,122,80,234
2024-05-26 16:09:07,158,82,124,80,234
2024-05-26 16:09:07,156,81,126,79,234
2024-05-26 16:09:07,152,80,127,78,235
2024-05-26 16:09:07,152,80,127,78,234
2024-05-26 16:09:07,155,80,124,79,235
2024-05-26 16:09:07,161,81,122,80,234
2024-05-26 16:09:07,167,81,121,79,235
2024-05-26 16:09:07,165,80,120,79,235
2024-05-26 16:09:07,160,80,119,80,235
2024-05-26 16:09:07,154,80,121,81,234
2024-05-26 16:09:07,146,81,123,80,234
2024-05-26 16:09:07,141,80,122,79,234
2024-05-26 16:09:07,139,79,121,79,234
2024-05-26 16:09:07,144,79,122,78,234
2024-05-26 16:09:07,155,79,122,79,234
2024-05-26 16:09:07,161,80,120,78,234
2024-05-26 16:09:07,165,80,120,77,235
2024-05-26 16:09:07,166,81,121,78,234
2024-05-26 16:09:07,165,83,125,79,234
2024-05-26 16:09:07,161,84,123,79,234
2024-05-26 16:09:07,157,85,123,80,234
2024-05-26 16:09:07,152,85,125,79,234
2024-05-26 16:09:07,147,85,124,78,234
2024-05-26 16:09:07,140,86,117,79,235
2024-05-26 16:09:07,140,87,114,81,234
2024-05-26 16:09:07,143,88,118,81,235
2024-05-26 16:09:07,144,87,121,81,234
2024-05-26 16:09:07,145,87,121,80,234
2024-05-26 16:09:07,145,88,122,81,234
2024-05-26 16:09:07,145,89,127,83,235
2024-05-26 16:09:07,145,89,129,84,234
2024-05-26 16:09:07,140,88,124,86,235
2024-05-26 16:09:07,135,88,117,85,234
2024-05-26 16:09:07,137,88,115,85,234
2024-05-26 16:09:07,142,90,118,87,235
2024-05-26 16:09:07,149,91,120,88,234
2024-05-26 16:09:07,159,91,117,87,234
2024-05-26 16:09:07,166,90,117,86,234
2024-05-26 16:09:07,165,90,121,86,232
2024-05-26 16:09:07,162,92,127,88,235
2024-05-26 16:09:07,160,91,127,89,234
2024-05-26 16:09:07,159,91,122,88,235
2024-05-26 16:09:07,156,90,116,87,234
2024-05-26 16:09:07,146,91,114,89,235
2024-05-26 16:09:07,137,92,112,91,234
2024-05-26 16:09:07,135,92,112,92,235
2024-05-26 16:09:07,139,92,115,90,234
2024-05-26 16:09:07,140,92,115,88,235
2024-05-26 16:09:07,135,93,112,91,234
2024-05-26 16:09:07,131,95,109,93,234
2024-05-26 16:09:07,136,96,108,94,235
2024-05-26 16:09:07,144,96,109,93,234
2024-05-26 16:09:07,152,94,111,93,234
2024-05-26 16:09:07,160,95,117,94,234
2024-05-26 16:09:07,167,96,125,95,235
2024-05-26 16:09:07,166,97,127,96,234
2024-05-26 16:09:07,170,97,125,96,234
2024-05-26 16:09:07,176,96,128,94,234
2024-05-26 16:09:07,181,96,133,93,235
2024-05-26 16:09:07,190,97,133,92,234
2024-05-26 16:09:07,200,96,128,93,234
2024-05-26 16:09:07,206,96,124,91,234
2024-05-26 16:09:07,208,95,116,90,234
2024-05-26 16:09:07,205,95,112,90,234
2024-05-26 16:09:07,195,97,114,91,234
2024-05-26 16:09:07,178,97,116,92,234
2024-05-26 16:09:07,164,96,118,91,234
2024-05-26 16:09:07,158,95,122,92,234
2024-05-26 16:09:07,156,97,122,93,234
2024-05-26 16:09:07,155,97,117,93,235
2024-05-26 16:09:07,150,98,112,93,235
2024-05-26 16:09:07,138,97,112,91,234
2024-05-26 16:09:07,127,96,115,89,235
2024-05-26 16:09:07,118,96,113,90,234
2024-05-26 16:09:07,114,97,110,93,234
2024-05-26 16:09:07,118,98,107,95,235
2024-05-26 16:09:07,120,97,109,94,234
2024-05-26 16:09:07,116,97,114,93,234
2024-05-26 16:09:07,111,97,118,92,234
2024-05-26 16:09:07,110,98,121,92,235
2024-05-26 16:09:07,108,98,125,94,234
2024-05-26 16:09:07,103,97,125,93,234
2024-05-26 16:09:07,98,96,121,93,235
2024-05-26 16:09:07,97,97,118,94,234
2024-05-26 16:09:07,98,98,116,95,234
2024-05-26 16:09:07,106,99,112,95,234
2024-05-26 16:09:07,115,99,109,94,234
2024-05-26 16:09:07,117,99,110,94,235
2024-05-26 16:09:07,116,100,111,96,234
2024-05-26 16:09:07,113,101,111,98,235
2024-05-26 16:09:07,112,102,110,100,234
2024-05-26 16:09:07,108,102,110,101,234
2024-05-26 16:09:07,104,102,109,101,234
2024-05-26 16:09:07,104,103,106,103,234
2024-05-26 16:09:07,104,105,105,104,234
2024-05-26 16:09:07,100,107,107,105,234
2024-05-26 16:09:07,99,106,106,104,234
2024-05-26 16:09:07,97,104,107,101,234
2024-05-26 16:09:07,93,104,115,102,234
2024-05-26 16:09:07,96,105,121,103,234
2024-05-26 16:09:07,106,106,123,104,235
2024-05-26 16:09:07,110,105,122,103,234
2024-05-26 16:09:07,112,103,117,101,234
2024-05-26 16:09:07,115,102,116,100,234
2024-05-26 16:09:07,115,103,118,101,235
2024-05-26 16:09:07,113,103,119,103,234
2024-05-26 16:09:07,113,103,111,103,234
2024-05-26 16:09:07,117,103,107,102,235
2024-05-26 16:09:07,124,103,107,101,234
2024-05-26 16:09:07,127,104,110,101,234
2024-05-26 16:09:07,130,104,114,101,234
2024-05-26 16:09:07,127,102,118,101,234
2024-05-26 16:09:07,125,101,122,102,234
2024-05-26 16:09:07,122,101,120,103,234
2024-05-26 16:09:07,118,100,117,103,234
2024-05-26 16:09:07,115,99,117,103,234
2024-05-26 16:09:07,111,99,125,101,234
2024-05-26 16:09:07,111,99,117,102,234
2024-05-26 16:09:07,111,101,108,103,234
2024-05-26 16:09:07,117,102,103,104,234
2024-05-26 16:09:07,121,102,104,103,234
2024-05-26 16:09:07,122,102,110,104,235
2024-05-26 16:09:07,120,102,114,104,235
2024-05-26 16:09:07,119,102,120,105,234
2024-05-26 16:09:07,118,102,117,104,234
2024-05-26 16:09:07,116,101,111,102,234
2024-05-26 16:09:07,112,101,109,103,234
2024-05-26 16:09:07,107,102,113,104,234
2024-05-26 16:09:07,98,101,120,104,234
2024-05-26 16:09:07,90,101,124,103,234
2024-05-26 16:09:07,84,101,121,102,234
2024-05-26 16:09:07,83,100,120,103,234
2024-05-26 16:09:07,86,101,120,104,234
2024-05-26 16:09:07,92,102,121,106,234
2024-05-26 16:09:07,97,102,122,106,234
2024-05-26 16:09:07,97,101,123,106,234
2024-05-26 16:09:07,96,102,125,106,234
2024-05-26 16:09:07,97,103,127,107,234
2024-05-26 16:09:07,98,102,127,108,234
2024-05-26 16:09:07,105,103,126,106,235
2024-05-26 16:09:07,111,103,125,105,234
2024-05-26 16:09:07,115,103,123,106,234
2024-05-26 16:09:07,116,104,123,107,235
2024-05-26 16:09:07,121,104,126,108,234
2024-05-26 16:09:07,125,104,127,108,234
2024-05-26 16:09:07,127,103,124,107,234
2024-05-26 16:09:07,125,104,117,107,235
2024-05-26 16:09:07,121,104,116,107,234
2024-05-26 16:09:07,114,104,117,108,234
2024-05-26 16:09:07,104,103,118,108,234
2024-05-26 16:09:07,99,103,118,107,234
2024-05-26 16:09:07,96,103,117,106,234
2024-05-26 16:09:07,99,103,120,106,234
2024-05-26 16:09:07,108,103,128,106,234
2024-05-26 16:09:07,115,103,127,105,234
2024-05-26 16:09:07,125,101,123,106,234
2024-05-26 16:09:07,132,102,120,106,234
2024-05-26 16:09:07,134,102,122,106,234
2024-05-26 16:09:07,132,102,125,106,233
2024-05-26 16:09:07,124,100,125,104,234
2024-05-26 16:09:07,118,100,120,103,234
2024-05-26 16:09:07,113,101,116,104,232
2024-05-26 16:09:07,110,103,113,107,234
2024-05-26 16:09:07,107,105,115,108,234
2024-05-26 16:09:07,103,105,117,109,234
2024-05-26 16:09:07,98,105,119,107,234
2024-05-26 16:09:07,96,105,121,107,235
2024-05-26 16:09:07,97,107,122,108,234
2024-05-26 16:09:07,99,108,119,110,234
2024-05-26 16:09:07,99,108,114,110,235
2024-05-26 16:09:07,99,107,112,109,234
2024-05-26 16:09:07,104,107,110,110,234
2024-05-26 16:09:07,111,108,108,112,234
2024-05-26 16:09:07,120,109,114,113,234
2024-05-26 16:09:07,127,109,117,112,234
2024-05-26 16:09:07,129,109,114,110,234
2024-05-26 16:09:07,125,108,113,110,234
2024-05-26 16:09:07,119,108,112,110,234
2024-05-26 16:09:07,114,109,117,111,235
2024-05-26 16:09:07,112,108,122,112,234
2024-05-26 16:09:07,112,107,127,110,234
2024-05-26 16:09:07,109,108,129,111,235
2024-05-26 16:09:07,103,110,123,112,234
2024-05-26 16:09:07,99,109,120,112,234
2024-05-26 16:09:07,100,107,122,111,234
2024-05-26 16:09:07,103,106,123,110,234
2024-05-26 16:09:07,105,105,123,111,234
2024-05-26 16:09:07,106,106,125,113,234
2024-05-26 16:09:07,108,108,128,113,234
2024-05-26 16:09:07,105,109,128,112,234
2024-05-26 16:09:07,100,110,126,113,235
2024-05-26 16:09:07,95,111,122,113,234
2024-05-26 16:09:07,93,112,121,115,234
2024-05-26 16:09:07,92,113,123,117,235
2024-05-26 16:09:07,90,111,127,115,234
2024-05-26 16:09:07,89,110,128,115,234
2024-05-26 16:09:07,94,110,127,114,234
2024-05-26 16:09:07,103,111,128,114,235
2024-05-26 16:09:07,113,112,123,115,234
2024-05-26 16:09:07,113,112,118,114,234
2024-05-26 16:09:07,115,113,119,114,234
2024-05-26 16:09:07,122,113,121,115,234
2024-05-26 16:09:07,127,115,125,115,234
2024-05-26 16:09:07,133,115,124,115,234
2024-05-26 16:09:07,133,114,123,114,234
2024-05-26 16:09:08,123,114,120,113,234
2024-05-26 16:09:08,108,114,121,113,234
2024-05-26 16:09:08,93,115,125,115,235
2024-05-26 16:09:08,86,114,127,115,234
2024-05-26 16:09:08,84,113,125,114,234
2024-05-26 16:09:08,84,113,122,113,234
2024-05-26 16:09:08,86,113,121,113,234
2024-05-26 16:09:08,87,114,124,115,234
2024-05-26 16:09:08,94,116,128,116,234
2024-05-26 16:09:08,99,114,129,115,234
2024-05-26 16:09:08,97,115,128,113,234
2024-05-26 16:09:08,91,114,126,112,234
2024-05-26 16:09:08,88,115,124,112,235
2024-05-26 16:09:08,89,114,126,112,234
2024-05-26 16:09:08,89,113,124,113,234
2024-05-26 16:09:08,93,112,121,113,234
2024-05-26 16:09:08,98,113,117,112,233
2024-05-26 16:09:08,98,114,115,112,235
2024-05-26 16:09:08,94,115,117,113,234
2024-05-26 16:09:08,90,115,118,113,234
2024-05-26 16:09:08,87,115,114,112,234
2024-05-26 16:09:08,81,114,112,112,234
2024-05-26 16:09:08,81,113,111,113,235
2024-05-26 16:09:08,87,112,112,113,235
2024-05-26 16:09:08,90,111,118,113,234
2024-05-26 16:09:08,84,110,121,112,235
2024-05-26 16:09:08,74,109,120,113,234
2024-05-26 16:09:08,69,110,119,113,234
2024-05-26 16:09:08,73,110,120,113,234
2024-05-26 16:09:08,76,110,123,113,234
2024-05-26 16:09:08,73,109,125,111,235
2024-05-26 16:09:08,75,109,123,110,234
2024-05-26 16:09:08,84,108,119,110,234
2024-05-26 16:09:08,97,110,115,112,234
2024-05-26 16:09:08,108,109,116,112,235
2024-05-26 16:09:08,113,109,117,111,234
2024-05-26 16:09:08,117,109,116,110,234
2024-05-26 16:09:08,118,110,114,109,234
2024-05-26 16:09:08,117,110,112,110,234
2024-05-26 16:09:08,108,109,112,110,234
2024-05-26 16:09:08,98,108,114,111,234
2024-05-26 16:09:08,99,105,116,108,234
2024-05-26 16:09:08,110,102,120,106,234
2024-05-26 16:09:08,123,104,124,107,234
2024-05-26 16:09:08,133,111,120,114,234
2024-05-26 16:09:08,135,114,111,113,234
2024-05-26 16:09:08,130,105,110,103,234
2024-05-26 16:09:08,124,99,110,98,235
2024-05-26 16:09:08,123,105,111,103,234
2024-05-26 16:09:08,123,110,114,111,234
2024-05-26 16:09:08,120,102,111,108,234
2024-05-26 16:09:08,116,89,110,99,234
2024-05-26 16:09:08,113,97,113,105,234
2024-05-26 16:09:08,113,112,116,116,234
2024-05-26 16:09:08,120,120,119,120,235
2024-05-26 16:09:08,140,118,121,115,235
2024-05-26 16:09:08,160,111,117,106,235
2024-05-26 16:09:08,174,103,113,99,234
2024-05-26 16:09:08,180,105,117,104,234
2024-05-26 16:09:08,183,104,121,106,234
2024-05-26 16:09:08,185,96,118,99,234
2024-05-26 16:09:08,188,101,118,105,234
2024-05-26 16:09:08,190,101,120,109,234
2024-05-26 16:09:08,193,96,122,105,234
2024-05-26 16:09:08,193,97,120,105,234
2024-05-26 16:09:08,193,97,119,105,234
2024-05-26 16:09:08,193,95,116,105,234
2024-05-26 16:09:08,192,94,119,107,234
2024-05-26 16:09:08,189,91,121,113,235
2024-05-26 16:09:08,186,76,124,109,234
2024-05-26 16:09:08,177,59,124,106,234
2024-05-26 16:09:08,159,40,120,99,234
2024-05-26 16:09:08,147,28,114,96,234
2024-05-26 16:09:08,141,27,113,101,234
2024-05-26 16:09:08,139,23,117,104,234
2024-05-26 16:09:08,140,12,118,100,234
2024-05-26 16:09:08,145,4,117,100,235
2024-05-26 16:09:08,147,0,117,98,234
2024-05-26 16:09:08,147,0,120,96,235
2024-05-26 16:09:08,143,1,123,98,234
2024-05-26 16:09:08,140,4,127,99,234
2024-05-26 16:09:08,140,6,130,100,232
2024-05-26 16:09:08,143,7,129,102,234
2024-05-26 16:09:08,140,9,124,106,235
2024-05-26 16:09:08,134,9,124,106,235
2024-05-26 16:09:08,118,107,234,106,235
2024-05-26 16:09:08,127,5,113,102,234
2024-05-26 16:09:08,114,7,107,104,234
2024-05-26 16:09:08,112,9,108,106,234
2024-05-26 16:09:08,122,11,110,110,234
2024-05-26 16:09:08,133,12,115,113,234
2024-05-26 16:09:08,136,14,121,114,234
2024-05-26 16:09:08,128,16,126,117,234
2024-05-26 16:09:08,123,19,126,121,234
2024-05-26 16:09:08,124,15,126,118,234
2024-05-26 16:09:08,131,15,126,118,234
2024-05-26 16:09:08,124,112,234,118,234
2024-05-26 16:09:08,138,11,122,111,235
2024-05-26 16:09:08,142,17,122,117,234
2024-05-26 16:09:08,149,23,121,122,234
2024-05-26 16:09:08,153,25,120,123,234
2024-05-26 16:09:08,152,24,119,119,234
2024-05-26 16:09:08,150,28,121,121,234
2024-05-26 16:09:08,148,33,124,126,234
2024-05-26 16:09:08,152,35,122,126,234
2024-05-26 16:09:08,158,37,121,125,234
2024-05-26 16:09:08,162,38,119,125,235
2024-05-26 16:09:08,159,35,120,122,234
2024-05-26 16:09:08,150,42,123,129,235
2024-05-26 16:09:08,140,52,122,137,234
2024-05-26 16:09:08,140,56,121,138,234
2024-05-26 16:09:08,143,57,118,138,234
2024-05-26 16:09:08,143,56,116,135,234
2024-05-26 16:09:08,144,58,119,136,235
2024-05-26 16:09:08,149,60,120,136,234
2024-05-26 16:09:08,152,62,120,136,235
2024-05-26 16:09:08,154,64,120,137,235
2024-05-26 16:09:08,155,65,119,136,235
2024-05-26 16:09:08,154,69,117,139,234
2024-05-26 16:09:08,151,73,116,143,234
2024-05-26 16:09:08,147,77,115,145,235
2024-05-26 16:09:08,149,77,112,144,234
2024-05-26 16:09:08,150,77,112,141,234
2024-05-26 16:09:08,151,79,114,142,234
2024-05-26 16:09:08,151,84,118,145,234
2024-05-26 16:09:08,156,88,123,148,234
2024-05-26 16:09:08,155,89,124,148,234
2024-05-26 16:09:08,150,89,123,145,235
2024-05-26 16:09:08,143,92,123,147,235
2024-05-26 16:09:08,132,97,122,152,234
2024-05-26 16:09:08,124,102,117,157,234
2024-05-26 16:09:08,126,101,114,155,235
2024-05-26 16:09:08,130,98,111,148,234
2024-05-26 16:09:08,137,97,112,147,234
2024-05-26 16:09:08,143,105,116,152,234
2024-05-26 16:09:08,149,111,118,157,234
2024-05-26 16:09:08,156,114,116,159,234
2024-05-26 16:09:08,162,119,118,165,234
2024-05-26 16:09:08,162,117,118,163,234
2024-05-26 16:09:08,162,119,118,164,234
2024-05-26 16:09:08,160,123,119,166,234
2024-05-26 16:09:08,157,122,118,163,235
2024-05-26 16:09:08,150,124,117,162,234
2024-05-26 16:09:08,139,127,115,162,234
2024-05-26 16:09:08,134,130,116,162,234
2024-05-26 16:09:08,135,133,118,164,234
2024-05-26 16:09:08,133,134,119,163,234
2024-05-26 16:09:08,134,137,116,165,234
2024-05-26 16:09:08,139,139,114,167,234
2024-05-26 16:09:08,144,142,115,171,235
2024-05-26 16:09:08,153,139,116,167,234
2024-05-26 16:09:08,162,136,116,161,234
2024-05-26 16:09:08,163,140,117,163,234
2024-05-26 16:09:08,155,143,120,166,234
2024-05-26 16:09:08,142,147,121,170,234
2024-05-26 16:09:08,127,144,119,166,234
2024-05-26 16:09:08,116,141,117,162,234
2024-05-26 16:09:08,110,142,112,159,235
2024-05-26 16:09:08,110,148,109,163,234
2024-05-26 16:09:08,113,153,108,169,234
2024-05-26 16:09:08,112,157,106,171,234
2024-05-26 16:09:08,104,157,112,168,234
2024-05-26 16:09:08,99,158,118,167,234
2024-05-26 16:09:08,92,160,123,167,234
2024-05-26 16:09:08,86,162,121,169,234
2024-05-26 16:09:08,88,165,120,171,234
2024-05-26 16:09:08,94,165,118,169,234
2024-05-26 16:09:08,93,165,115,168,234
2024-05-26 16:09:08,88,167,114,169,234
2024-05-26 16:09:08,84,170,116,171,235
2024-05-26 16:09:08,83,171,118,171,235
2024-05-26 16:09:08,85,172,117,169,234
2024-05-26 16:09:08,88,172,118,168,234
2024-05-26 16:09:08,94,174,124,171,235
2024-05-26 16:09:08,100,175,124,172,234
2024-05-26 16:09:08,103,175,119,172,235
2024-05-26 16:09:08,102,175,113,172,234
2024-05-26 16:09:08,97,176,111,171,234
2024-05-26 16:09:08,89,179,110,173,234
2024-05-26 16:09:08,87,183,112,174,235
2024-05-26 16:09:08,89,186,112,175,234
2024-05-26 16:09:08,93,186,110,174,235
2024-05-26 16:09:08,88,185,114,173,234
2024-05-26 16:09:08,80,185,117,173,235
2024-05-26 16:09:08,79,186,114,173,234
2024-05-26 16:09:08,80,188,112,173,235
2024-05-26 16:09:08,82,186,113,172,234
2024-05-26 16:09:08,84,186,114,169,234
2024-05-26 16:09:08,85,187,114,169,235
2024-05-26 16:09:08,84,190,109,173,234
2024-05-26 16:09:08,85,191,107,174,234
2024-05-26 16:09:08,82,190,108,170,234
2024-05-26 16:09:08,73,188,107,167,234
2024-05-26 16:09:08,57,189,110,168,234
2024-05-26 16:09:08,49,191,112,169,234
2024-05-26 16:09:08,45,192,111,169,234
2024-05-26 16:09:08,45,191,109,170,234
2024-05-26 16:09:08,48,190,110,169,234
2024-05-26 16:09:08,54,189,110,168,235
2024-05-26 16:09:08,64,191,109,169,235
2024-05-26 16:09:08,71,191,110,169,234
2024-05-26 16:09:08,74,192,109,170,234
2024-05-26 16:09:08,77,191,109,168,234
2024-05-26 16:09:08,82,191,107,167,235
2024-05-26 16:09:08,87,192,105,166,234
2024-05-26 16:09:08,93,193,104,167,235
2024-05-26 16:09:08,97,191,104,166,234
2024-05-26 16:09:08,100,190,107,163,234
2024-05-26 16:09:08,102,193,108,167,232
2024-05-26 16:09:08,103,193,108,168,234
2024-05-26 16:09:08,100,194,108,168,234
2024-05-26 16:09:08,100,194,108,166,234
2024-05-26 16:09:08,103,192,112,163,234
2024-05-26 16:09:08,104,192,113,164,234
2024-05-26 16:09:08,106,194,110,166,234
2024-05-26 16:09:08,108,194,111,167,235
2024-05-26 16:09:08,110,192,111,166,234
2024-05-26 16:09:08,112,189,114,165,235
2024-05-26 16:09:08,116,189,118,166,234
