Timestamp,Channel_1
2024-05-23 12:20:12,91.91090190135611
2024-05-23 12:20:12,87.56395669769768
2024-05-23 12:20:12,83.86396028662007
2024-05-23 12:20:12,82.4207242274347
2024-05-23 12:20:12,84.38778253460396
2024-05-23 12:20:12,89.66378390163534
2024-05-23 12:20:12,96.54720362700328
2024-05-23 12:20:12,102.34398531502642
2024-05-23 12:20:12,104.72992805437387
2024-05-23 12:20:12,102.98935012843599
2024-05-23 12:20:12,98.32128352837094
2024-05-23 12:20:12,93.09249789888692
2024-05-23 12:20:12,89.58660078403013
2024-05-23 12:20:12,88.98262432928857
2024-05-23 12:20:12,91.07061692233086
2024-05-23 12:20:12,94.72254345619821
2024-05-23 12:20:12,98.66861469460157
2024-05-23 12:20:12,102.03603117729935
2024-05-23 12:20:12,104.45481252793189
2024-05-23 12:20:12,105.92982526920495
2024-05-23 12:20:12,106.65698567399815
2024-05-23 12:20:12,106.80526641132886
2024-05-23 12:20:12,106.44793478227307
2024-05-23 12:20:12,105.81653500491443
2024-05-23 12:20:12,105.54294191298088
2024-05-23 12:20:12,106.35535381544116
2024-05-23 12:20:12,108.36465039856112
2024-05-23 12:20:12,110.72976958513969
2024-05-23 12:20:12,112.16732977494235
2024-05-23 12:20:12,111.97253371500304
2024-05-23 12:20:12,110.73339854965936
2024-05-23 12:20:12,109.9368237746549
2024-05-23 12:20:12,110.51579863012988
2024-05-23 12:20:12,111.6610299114163
2024-05-23 12:20:12,111.31918214444966
2024-05-23 12:20:12,108.07426059167955
2024-05-23 12:20:12,102.60107030571693
2024-05-23 12:20:12,97.36305991652917
2024-05-23 12:20:12,94.8620662555202
2024-05-23 12:20:12,95.89127448618484
2024-05-23 12:20:12,99.15110268597095
2024-05-23 12:20:12,102.3969988140906
2024-05-23 12:20:12,104.1252366341144
2024-05-23 12:20:12,104.53835192030728
2024-05-23 12:20:12,105.10935197671003
2024-05-23 12:20:12,107.11559507417573
2024-05-23 12:20:12,110.46597440086659
2024-05-23 12:20:12,113.86360914854532
2024-05-23 12:20:12,115.88968497129228
2024-05-23 12:20:12,115.85462185718607
2024-05-23 12:20:12,113.92791324378157
2024-05-23 12:20:12,110.82790029092784
2024-05-23 12:20:12,107.42436715573356
2024-05-23 12:20:12,104.44688160816143
2024-05-23 12:20:12,102.3908876928207
2024-05-23 12:20:12,101.53262555457987
2024-05-23 12:20:12,101.90594188471265
2024-05-23 12:20:12,103.26429488102293
2024-05-23 12:20:12,105.13578232152578
2024-05-23 12:20:12,106.98609223462732
2024-05-23 12:20:12,108.3958309923565
2024-05-23 12:20:12,109.17977453310262
2024-05-23 12:20:12,109.46878175939386
2024-05-23 12:20:12,109.71887613556812
2024-05-23 12:20:12,110.51095954852819
2024-05-23 12:20:12,112.17610805748308
2024-05-23 12:20:12,114.59198323119455
2024-05-23 12:20:12,117.37892110332976
2024-05-23 12:20:12,120.20831236511118
2024-05-23 12:20:12,122.81781943230092
2024-05-23 12:20:12,124.78361588759722
2024-05-23 12:20:12,125.46512035449962
2024-05-23 12:20:12,124.36099285048888
2024-05-23 12:20:12,121.62434977283952
2024-05-23 12:20:12,118.28367220331118
2024-05-23 12:20:12,115.91604264000982
2024-05-23 12:20:12,115.83870649681448
2024-05-23 12:20:12,118.15184367710793
2024-05-23 12:20:12,121.3207524615595
2024-05-23 12:20:12,122.97394220305328
2024-05-23 12:20:12,121.57127541775161
2024-05-23 12:20:12,117.55294102622297
2024-05-23 12:20:12,112.9802417122693
2024-05-23 12:20:12,110.05498280932972
2024-05-23 12:20:12,109.6798738753585
2024-05-23 12:20:12,110.98718002135112
2024-05-23 12:20:12,112.07975466447616
2024-05-23 12:20:12,111.45189315400991
2024-05-23 12:20:12,109.01089893721094
2024-05-23 12:20:12,105.89089821427415
2024-05-23 12:20:12,103.31771865310452
2024-05-23 12:20:12,101.55810993454604
2024-05-23 12:20:12,99.87297407241242
2024-05-23 12:20:12,97.4446398660256
2024-05-23 12:20:12,94.39538645868892
2024-05-23 12:20:12,91.94700379502292
2024-05-23 12:20:12,91.5538282294553
2024-05-23 12:20:12,93.72777439312807
2024-05-23 12:20:12,97.55380923411214
2024-05-23 12:20:12,101.33833436089482
2024-05-23 12:20:12,103.80552594865836
2024-05-23 12:20:12,104.77212142194739
2024-05-23 12:20:12,104.90123294023937
2024-05-23 12:20:12,105.02700146310744
2024-05-23 12:20:12,105.6158647571282
2024-05-23 12:20:12,106.49369530732113
2024-05-23 12:20:12,106.8833081255894
2024-05-23 12:20:12,105.86475438678009
2024-05-23 12:20:12,103.11061151172227
2024-05-23 12:20:12,99.33314138496658
2024-05-23 12:20:12,95.90960331560866
2024-05-23 12:20:12,93.92260285497778
2024-05-23 12:20:12,93.57613294522668
2024-05-23 12:20:12,94.53927439669881
2024-05-23 12:20:12,96.67965637586175
2024-05-23 12:20:12,100.29652971925168
2024-05-23 12:20:12,105.67492375702088
2024-05-23 12:20:12,112.52943596024771
2024-05-23 12:20:12,119.8204887291678
2024-05-23 12:20:12,126.00121299750779
2024-05-23 12:20:12,129.62303551281673
2024-05-23 12:20:13,130.1025140743411
2024-05-23 12:20:13,128.11246780199514
2024-05-23 12:20:13,125.1686577682531
2024-05-23 12:20:13,122.76682348420323
2024-05-23 12:20:13,121.81635833188707
2024-05-23 12:20:13,122.50636756404951
2024-05-23 12:20:13,124.21049394324339
2024-05-23 12:20:13,125.50714973767631
2024-05-23 12:20:13,124.8994739736313
2024-05-23 12:20:13,122.0408710532779
2024-05-23 12:20:13,118.22734630098817
2024-05-23 12:20:13,115.44211890997926
2024-05-23 12:20:13,114.80168868829247
2024-05-23 12:20:13,115.82178039839657
2024-05-23 12:20:13,116.99762534246952
2024-05-23 12:20:13,117.08765885411823
2024-05-23 12:20:13,116.17065475470872
2024-05-23 12:20:13,115.72600596086644
2024-05-23 12:20:13,117.57705164024192
2024-05-23 12:20:13,122.45499965312418
2024-05-23 12:20:13,129.3899886564146
2024-05-23 12:20:13,136.43138472950918
2024-05-23 12:20:13,141.92090168656418
2024-05-23 12:20:13,145.20430689229616
2024-05-23 12:20:13,146.48999665329436
2024-05-23 12:20:13,146.41045830423926
2024-05-23 12:20:13,145.82182349165203
2024-05-23 12:20:13,145.6806430201471
2024-05-23 12:20:13,146.58202335206116
2024-05-23 12:20:13,148.06986260417244
2024-05-23 12:20:13,148.38927126347986
2024-05-23 12:20:13,145.2096267346733
2024-05-23 12:20:13,137.09418846532003
2024-05-23 12:20:13,124.7911803022879
2024-05-23 12:20:13,111.33926644282838
2024-05-23 12:20:13,100.67445026213242
2024-05-23 12:20:13,95.54166073774682
2024-05-23 12:20:13,96.1066064199225
2024-05-23 12:20:13,100.17706972371614
2024-05-23 12:20:13,104.75894608729179
2024-05-23 12:20:13,107.79298474498964
2024-05-23 12:20:13,108.96391065635012
2024-05-23 12:20:13,109.22123561788248
2024-05-23 12:20:13,109.58726700706389
2024-05-23 12:20:13,110.28081119830918
2024-05-23 12:20:13,110.75609348538758
2024-05-23 12:20:13,110.40455930553617
2024-05-23 12:20:13,109.1914238391962
2024-05-23 12:20:13,107.69562565863342
2024-05-23 12:20:13,106.6228038256204
2024-05-23 12:20:13,106.3203762991346
2024-05-23 12:20:13,106.66307219151454
2024-05-23 12:20:13,107.19103883977871
2024-05-23 12:20:13,107.36688006395487
2024-05-23 12:20:13,107.0079711091422
2024-05-23 12:20:13,106.57220145166339
2024-05-23 12:20:13,106.72531735721411
2024-05-23 12:20:13,107.4583712021388
2024-05-23 12:20:13,107.8646399969303
2024-05-23 12:20:13,106.9858833756428
2024-05-23 12:20:13,104.84532767270153
2024-05-23 12:20:13,102.62863556457543
2024-05-23 12:20:13,101.83469405069314
2024-05-23 12:20:13,103.07675857851474
2024-05-23 12:20:13,105.5298150607269
2024-05-23 12:20:13,107.51692828007472
2024-05-23 12:20:13,107.77443396385826
2024-05-23 12:20:13,106.31738702962765
2024-05-23 12:20:13,104.20402408029665
2024-05-23 12:20:13,102.53927719752504
2024-05-23 12:20:13,101.76251888670214
2024-05-23 12:20:13,101.80353792253928
2024-05-23 12:20:13,102.60823026953453
2024-05-23 12:20:13,104.27865563014298
2024-05-23 12:20:13,106.77212815880097
2024-05-23 12:20:13,109.60882951195917
2024-05-23 12:20:13,111.95824747378292
2024-05-23 12:20:13,113.16830571118226
2024-05-23 12:20:13,113.35982029784246
2024-05-23 12:20:13,113.40860544791998
2024-05-23 12:20:13,114.17720433880567
2024-05-23 12:20:13,115.74985342207383
2024-05-23 12:20:13,117.40476214635241
2024-05-23 12:20:13,118.27343565173723
2024-05-23 12:20:13,118.08267312349321
2024-05-23 12:20:13,117.39956462448293
2024-05-23 12:20:13,117.23439485433697
2024-05-23 12:20:13,118.34856944282664
2024-05-23 12:20:13,120.81707954880665
2024-05-23 12:20:13,124.0962945170559
2024-05-23 12:20:13,127.38466415441363
2024-05-23 12:20:13,129.9232808394018
2024-05-23 12:20:13,131.14830378273462
2024-05-23 12:20:13,130.85336455062654
2024-05-23 12:20:13,129.3872786202452
2024-05-23 12:20:13,127.61477958789413
2024-05-23 12:20:13,126.47950440931334
2024-05-23 12:20:13,126.48837080711147
2024-05-23 12:20:13,127.61550795193361
2024-05-23 12:20:13,129.6350962299192
2024-05-23 12:20:13,132.35419005902943
2024-05-23 12:20:13,135.34705731717938
2024-05-23 12:20:13,137.57487410140715
2024-05-23 12:20:13,137.68150676699184
2024-05-23 12:20:13,134.96505782859933
2024-05-23 12:20:13,130.0863273729491
2024-05-23 12:20:13,124.8693411487092
2024-05-23 12:20:13,121.39173947010158
2024-05-23 12:20:13,120.89050468054694
2024-05-23 12:20:13,123.01954927604139
2024-05-23 12:20:13,126.00967257483055
2024-05-23 12:20:13,127.82845719576324
2024-05-23 12:20:13,127.54967077832325
2024-05-23 12:20:13,125.78035096303736
2024-05-23 12:20:13,123.79934778651213
2024-05-23 12:20:13,122.33138206040266
2024-05-23 12:20:13,121.24138288966171
2024-05-23 12:20:13,120.20946490114063
2024-05-23 12:20:13,119.23549159835105
2024-05-23 12:20:13,118.30571053668709
2024-05-23 12:20:13,116.910066061718
2024-05-23 12:20:13,114.38979975942593
2024-05-23 12:20:13,110.95581432383946
2024-05-23 12:20:13,108.21665125964643
2024-05-23 12:20:13,108.35902949019612
2024-05-23 12:20:13,112.44687534020854
2024-05-23 12:20:13,119.31509288798789
2024-05-23 12:20:13,126.10919937685796
2024-05-23 12:20:13,130.05202377635166
2024-05-23 12:20:13,129.99979492072757
2024-05-23 12:20:13,126.72741652273791
2024-05-23 12:20:13,122.10572276383274
2024-05-23 12:20:13,118.02318690669317
2024-05-23 12:20:13,115.694859901407
2024-05-23 12:20:13,115.45382953747178
2024-05-23 12:20:13,116.85434324983687
2024-05-23 12:20:13,118.93817592330672
2024-05-23 12:20:13,120.60002156005126
2024-05-23 12:20:13,121.02218713570116
2024-05-23 12:20:13,120.02245187687068
2024-05-23 12:20:13,118.05749234266098
2024-05-23 12:20:13,115.90398810956128
2024-05-23 12:20:13,114.34137583003705
2024-05-23 12:20:13,114.02647919253556
2024-05-23 12:20:13,115.40000982466321
2024-05-23 12:20:13,118.4782559061725
2024-05-23 12:20:13,122.68835641289756
2024-05-23 12:20:13,127.02669669088789
2024-05-23 12:20:13,130.666865011146
2024-05-23 12:20:13,133.7451691904608
2024-05-23 12:20:13,137.52270213878876
2024-05-23 12:20:13,143.2625490855731
2024-05-23 12:20:13,150.4777464025219
2024-05-23 12:20:13,156.38100524620916
2024-05-23 12:20:13,157.4963579615873
2024-05-23 12:20:13,152.21397747122973
2024-05-23 12:20:13,142.15202431857682
2024-05-23 12:20:13,131.27403828850774
2024-05-23 12:20:13,123.49851151656199
2024-05-23 12:20:13,120.57598657332586
2024-05-23 12:20:13,121.59160246199735
2024-05-23 12:20:13,124.1291232935952
2024-05-23 12:20:13,125.97424432659528
2024-05-23 12:20:13,126.12865086771077
2024-05-23 12:20:13,124.7765935446001
2024-05-23 12:20:13,122.7298268900334
2024-05-23 12:20:13,120.93172720251394
2024-05-23 12:20:13,120.12484291396217
2024-05-23 12:20:13,120.61329686706964
2024-05-23 12:20:13,122.1253507828975
2024-05-23 12:20:13,123.83780486673155
2024-05-23 12:20:13,124.678139375901
2024-05-23 12:20:13,123.89277627434853
2024-05-23 12:20:13,121.54233602431408
2024-05-23 12:20:13,118.52715875610303
2024-05-23 12:20:13,116.10372789508762
2024-05-23 12:20:13,115.20415772362644
2024-05-23 12:20:13,115.92143310334733
2024-05-23 12:20:13,117.44332150157095
2024-05-23 12:20:13,118.51216632307153
2024-05-23 12:20:13,118.13581096971043
2024-05-23 12:20:13,116.09206918515119
2024-05-23 12:20:13,112.94343129263488
2024-05-23 12:20:13,109.61266687031559
2024-05-23 12:20:13,106.80924460070874
2024-05-23 12:20:13,104.75734421208627
2024-05-23 12:20:13,103.48723578027214
2024-05-23 12:20:13,103.26708074485505
2024-05-23 12:20:13,104.45916585736838
2024-05-23 12:20:13,106.86961381151244
2024-05-23 12:20:13,109.49032798070381
2024-05-23 12:20:13,111.11271670109231
2024-05-23 12:20:13,111.13691126075106
2024-05-23 12:20:13,109.79944544501797
2024-05-23 12:20:13,107.96068852282534
2024-05-23 12:20:13,106.82216125389559
2024-05-23 12:20:13,107.3211964449066
2024-05-23 12:20:13,109.2384101358931
2024-05-23 12:20:13,111.06788232369216
2024-05-23 12:20:13,111.23785597071834
2024-05-23 12:20:13,109.58914647766306
2024-05-23 12:20:13,107.64842610243154
2024-05-23 12:20:13,107.5212591493464
2024-05-23 12:20:13,110.38164330512123
2024-05-23 12:20:13,115.56464873200493
2024-05-23 12:20:13,120.78552664474006
2024-05-23 12:20:13,123.47158408354468
2024-05-23 12:20:13,122.51339572101635
2024-05-23 12:20:13,119.19997783491313
2024-05-23 12:20:13,116.42685278562021
2024-05-23 12:20:13,116.6359867168254
2024-05-23 12:20:13,120.23111842143331
2024-05-23 12:20:13,125.71591122836165
2024-05-23 12:20:13,131.0308853145654
2024-05-23 12:20:13,134.68653270129994
2024-05-23 12:20:13,136.07813019542232
2024-05-23 12:20:13,135.39046082109542
2024-05-23 12:20:13,133.50548068650693
2024-05-23 12:20:13,131.76502264035335
2024-05-23 12:20:13,131.30686876827897
2024-05-23 12:20:13,132.2528551835356
2024-05-23 12:20:13,133.5402788138187
2024-05-23 12:20:13,133.767017205911
2024-05-23 12:20:13,132.40795218333972
2024-05-23 12:20:13,130.3174418533926
2024-05-23 12:20:13,129.09621091573328
2024-05-23 12:20:13,129.9228956684572
2024-05-23 12:20:13,132.78086255994324
2024-05-23 12:20:13,136.55772860140058
2024-05-23 12:20:13,139.82169847373535
2024-05-23 12:20:13,141.64909029085732
2024-05-23 12:20:13,141.90448481843669
2024-05-23 12:20:13,140.8719673442734
2024-05-23 12:20:13,138.7362189681138
2024-05-23 12:20:13,135.45823002704168
2024-05-23 12:20:13,131.0640243252681
2024-05-23 12:20:13,125.95927248980419
2024-05-23 12:20:13,120.93987910121636
2024-05-23 12:20:13,116.86749301594175
2024-05-23 12:20:13,114.20394350840773
2024-05-23 12:20:13,112.7212101147786
2024-05-23 12:20:13,111.65084696411682
2024-05-23 12:20:13,110.30218678649545
2024-05-23 12:20:13,108.88034094975791
2024-05-23 12:20:13,108.87595576361096
2024-05-23 12:20:13,112.32762501713908
2024-05-23 12:20:13,120.04377543132014
2024-05-23 12:20:13,130.1137219535316
2024-05-23 12:20:13,138.27647254654752
2024-05-23 12:20:13,140.28791495192587
2024-05-23 12:20:14,134.668754232573
2024-05-23 12:20:14,123.8117634705794
2024-05-23 12:20:14,112.57441418087713
2024-05-23 12:20:14,105.31768585081367
2024-05-23 12:20:14,103.48988961870006
2024-05-23 12:20:14,105.35676622881978
2024-05-23 12:20:14,107.80952608380882
2024-05-23 12:20:14,108.64852784577818
2024-05-23 12:20:14,107.64566011807902
2024-05-23 12:20:14,106.02045778786758
2024-05-23 12:20:14,105.2506263841622
2024-05-23 12:20:14,106.17350206298539
2024-05-23 12:20:14,108.60467148344131
2024-05-23 12:20:14,111.43691679318489
2024-05-23 12:20:14,113.26774545773623
2024-05-23 12:20:14,113.29122828344563
2024-05-23 12:20:14,111.81472435152136
2024-05-23 12:20:14,109.94859250833146
2024-05-23 12:20:14,108.73945556113907
2024-05-23 12:20:14,108.41689739262978
2024-05-23 12:20:14,108.19679227697674
2024-05-23 12:20:14,106.71309715748984
2024-05-23 12:20:14,102.9020081232766
2024-05-23 12:20:14,96.87680319580126
2024-05-23 12:20:14,90.11355017014664
2024-05-23 12:20:14,84.67757289072401
2024-05-23 12:20:14,82.10566981547596
2024-05-23 12:20:14,82.76120560888928
2024-05-23 12:20:14,85.86087719913209
2024-05-23 12:20:14,89.79857215357046
2024-05-23 12:20:14,92.48756181911452
2024-05-23 12:20:14,92.14225202192735
2024-05-23 12:20:14,89.06529448734165
2024-05-23 12:20:14,87.1329259407289
2024-05-23 12:20:14,92.16110901097362
2024-05-23 12:20:14,107.0826021978885
2024-05-23 12:20:14,128.39524973138677
2024-05-23 12:20:14,147.63352717912497
2024-05-23 12:20:14,156.704426268623
2024-05-23 12:20:14,152.62039404984847
2024-05-23 12:20:14,138.4338624922844
2024-05-23 12:20:14,120.78999201644031
2024-05-23 12:20:14,106.62340831592317
2024-05-23 12:20:14,100.66650307693175
2024-05-23 12:20:14,103.83066482249235
2024-05-23 12:20:14,112.69771248138666
2024-05-23 12:20:14,121.16191691898887
2024-05-23 12:20:14,123.98454749239116
2024-05-23 12:20:14,119.73231457558711
2024-05-23 12:20:14,110.83194808015341
2024-05-23 12:20:14,101.25907736970639
2024-05-23 12:20:14,94.1597413089072
2024-05-23 12:20:14,90.81384588976248
2024-05-23 12:20:14,90.78977697829933
2024-05-23 12:20:14,92.78394678825586
2024-05-23 12:20:14,95.73429763468285
2024-05-23 12:20:14,99.45391367145737
2024-05-23 12:20:14,104.1313274404401
2024-05-23 12:20:14,109.22440767420491
2024-05-23 12:20:14,113.10533195218795
2024-05-23 12:20:14,113.96313396961166
2024-05-23 12:20:14,111.10997619984202
2024-05-23 12:20:14,105.60258510277751
2024-05-23 12:20:14,99.79322653949679
2024-05-23 12:20:14,96.13581157812163
2024-05-23 12:20:14,95.97360202504663
2024-05-23 12:20:14,99.00803122463483
2024-05-23 12:20:14,103.62563538205711
2024-05-23 12:20:14,107.75753926907208
2024-05-23 12:20:14,109.84230087165761
2024-05-23 12:20:14,109.507776125992
2024-05-23 12:20:14,107.64888566295741
2024-05-23 12:20:14,105.81136309158481
2024-05-23 12:20:14,105.18262022391066
2024-05-23 12:20:14,105.86599702363914
2024-05-23 12:20:14,107.05450327528335
2024-05-23 12:20:14,107.9596244434093
2024-05-23 12:20:14,108.51493947262767
2024-05-23 12:20:14,109.1125373785144
2024-05-23 12:20:14,109.78069629742471
2024-05-23 12:20:14,109.83620313310638
2024-05-23 12:20:14,108.45451476460813
2024-05-23 12:20:14,105.54007971118936
2024-05-23 12:20:14,101.95063280633624
2024-05-23 12:20:14,98.90188041473134
2024-05-23 12:20:14,97.22371605683533
2024-05-23 12:20:14,97.12426174392617
2024-05-23 12:20:14,98.46264401629429
2024-05-23 12:20:14,101.04945266315866
2024-05-23 12:20:14,104.61363088403976
2024-05-23 12:20:14,108.58563647722508
2024-05-23 12:20:14,112.13017039430277
2024-05-23 12:20:14,114.53011495823426
2024-05-23 12:20:14,115.45913175798964
2024-05-23 12:20:14,114.72191993333058
2024-05-23 12:20:14,111.86148233639774
2024-05-23 12:20:14,106.49511774735338
2024-05-23 12:20:14,99.29304505688502
2024-05-23 12:20:14,92.39445616998646
2024-05-23 12:20:14,88.49670621808768
2024-05-23 12:20:14,89.26419782447573
2024-05-23 12:20:14,94.35809516110389
2024-05-23 12:20:14,101.74604873845655
2024-05-23 12:20:14,108.87574189678706
2024-05-23 12:20:14,113.8478176618995
2024-05-23 12:20:14,115.9494648453664
2024-05-23 12:20:14,115.4573649523183
2024-05-23 12:20:14,113.08399220311043
2024-05-23 12:20:14,109.51885326863933
2024-05-23 12:20:14,105.24408650778396
2024-05-23 12:20:14,100.61281592569101
2024-05-23 12:20:14,96.09073435338162
2024-05-23 12:20:14,92.39021039081693
2024-05-23 12:20:14,90.32393752654413
2024-05-23 12:20:14,90.53439858602152
2024-05-23 12:20:14,93.22281827641037
2024-05-23 12:20:14,97.89383122226248
2024-05-23 12:20:14,103.35381819133796
2024-05-23 12:20:14,108.17574893140079
2024-05-23 12:20:14,111.3739303860586
2024-05-23 12:20:14,112.75581569191495
2024-05-23 12:20:14,112.74253452673673
2024-05-23 12:20:14,111.87465641108075
2024-05-23 12:20:14,110.42814658165995
2024-05-23 12:20:14,108.42704626014172
2024-05-23 12:20:14,105.93704766903505
2024-05-23 12:20:14,103.27699811328917
2024-05-23 12:20:14,100.956882483874
2024-05-23 12:20:14,99.4883838950239
2024-05-23 12:20:14,99.30943918183245
2024-05-23 12:20:14,100.74927968866476
2024-05-23 12:20:14,103.81220485617972
2024-05-23 12:20:14,107.91022528442305
2024-05-23 12:20:14,111.97137266287132
2024-05-23 12:20:14,114.95667787393722
2024-05-23 12:20:14,116.40858716530684
2024-05-23 12:20:14,116.54689313382069
2024-05-23 12:20:14,116.06957009112857
2024-05-23 12:20:14,115.73180767140981
2024-05-23 12:20:14,115.73606562859464
2024-05-23 12:20:14,115.31930817419236
2024-05-23 12:20:14,113.16249056135527
2024-05-23 12:20:14,108.50751226305673
2024-05-23 12:20:14,101.9923235914634
2024-05-23 12:20:14,95.43840202628095
2024-05-23 12:20:14,90.78109391683745
2024-05-23 12:20:14,88.95600062762972
2024-05-23 12:20:14,89.47253692552758
2024-05-23 12:20:14,90.86360472786977
2024-05-23 12:20:14,91.65805623547564
2024-05-23 12:20:14,91.20662095667464
2024-05-23 12:20:14,89.83347972158703
2024-05-23 12:20:14,88.32246173202624
2024-05-23 12:20:14,87.22363396145396
2024-05-23 12:20:14,86.5818716106745
2024-05-23 12:20:14,86.28143766553472
2024-05-23 12:20:14,86.58244914401277
2024-05-23 12:20:14,88.16190780629758
2024-05-23 12:20:14,91.43984675586898
2024-05-23 12:20:14,95.84175791233665
2024-05-23 12:20:14,99.88183601928917
2024-05-23 12:20:14,102.15808869766839
2024-05-23 12:20:14,102.34429598807621
2024-05-23 12:20:14,101.27268032781052
2024-05-23 12:20:14,100.14666241003931
2024-05-23 12:20:14,99.66152551808361
2024-05-23 12:20:14,99.72710610852361
2024-05-23 12:20:14,99.87284438794329
2024-05-23 12:20:14,99.84070329993506
2024-05-23 12:20:14,99.82903490149444
2024-05-23 12:20:14,100.2500262393636
2024-05-23 12:20:14,101.2808029361349
2024-05-23 12:20:14,102.64859909474043
2024-05-23 12:20:14,103.88551934561961
2024-05-23 12:20:14,104.82544802216827
2024-05-23 12:20:14,105.81328196615813
2024-05-23 12:20:14,107.39841580697086
2024-05-23 12:20:14,109.86172521036143
2024-05-23 12:20:14,113.05182596626454
2024-05-23 12:20:14,116.60843045736132
2024-05-23 12:20:14,120.25691232339271
2024-05-23 12:20:14,123.890019732193
2024-05-23 12:20:14,127.39474685076544
2024-05-23 12:20:14,130.38268942998874
2024-05-23 12:20:14,132.10440485594432
2024-05-23 12:20:14,131.81450791261
2024-05-23 12:20:14,129.5847311530625
2024-05-23 12:20:14,126.99023550984796
2024-05-23 12:20:14,126.67714390772778
2024-05-23 12:20:14,130.47365564141901
2024-05-23 12:20:14,137.38780594447823
2024-05-23 12:20:14,143.59181221752112
2024-05-23 12:20:14,144.85066313130324
2024-05-23 12:20:14,139.52219015204557
2024-05-23 12:20:14,129.8158210228957
2024-05-23 12:20:14,120.47399108295114
2024-05-23 12:20:14,115.85075950257139
2024-05-23 12:20:14,117.32491083373368
2024-05-23 12:20:14,122.68362745149523
2024-05-23 12:20:14,127.82386130378461
2024-05-23 12:20:14,129.52788514961458
2024-05-23 12:20:14,127.3274254232507
2024-05-23 12:20:14,123.24788801907307
2024-05-23 12:20:14,119.94887457242002
2024-05-23 12:20:14,118.91166047264089
2024-05-23 12:20:14,119.94905697482329
2024-05-23 12:20:14,121.974198607081
2024-05-23 12:20:14,123.97484620282069
2024-05-23 12:20:14,125.38917800265841
2024-05-23 12:20:14,126.00309538962898
2024-05-23 12:20:14,125.8197420110742
2024-05-23 12:20:14,125.00769113691217
2024-05-23 12:20:14,123.86140868457178
2024-05-23 12:20:14,122.87097038871322
2024-05-23 12:20:14,122.83065472761318
2024-05-23 12:20:14,124.56297618625561
2024-05-23 12:20:14,128.16748898674368
2024-05-23 12:20:14,132.43886320698127
2024-05-23 12:20:14,135.17952610492236
2024-05-23 12:20:14,134.4342404951321
2024-05-23 12:20:14,129.83282913775292
2024-05-23 12:20:14,122.93542037815078
2024-05-23 12:20:14,116.21879224928911
2024-05-23 12:20:14,111.62842095553854
2024-05-23 12:20:14,109.89300738220929
2024-05-23 12:20:14,110.73515625054068
2024-05-23 12:20:14,113.28229069795871
2024-05-23 12:20:14,116.289066913347
2024-05-23 12:20:14,118.39793541760295
2024-05-23 12:20:14,118.63869363222771
2024-05-23 12:20:14,116.88262232807267
2024-05-23 12:20:14,113.8908791543236
2024-05-23 12:20:14,110.97660462618985
2024-05-23 12:20:14,109.50024514276471
2024-05-23 12:20:14,110.23601500930513
2024-05-23 12:20:14,112.75387285026163
2024-05-23 12:20:14,115.34866614379678
2024-05-23 12:20:14,115.90853228670673
2024-05-23 12:20:14,113.28919597583548
2024-05-23 12:20:14,108.11127100209539
2024-05-23 12:20:14,102.27032188378743
2024-05-23 12:20:14,97.65474116706056
2024-05-23 12:20:14,95.19446324673227
2024-05-23 12:20:14,94.7577149599287
2024-05-23 12:20:14,95.63718818033253
2024-05-23 12:20:14,97.17295864011905
2024-05-23 12:20:14,99.20926445421094
2024-05-23 12:20:14,102.11441182733257
2024-05-23 12:20:14,106.21903059302107
2024-05-23 12:20:14,111.09327044355922
2024-05-23 12:20:15,115.47797469365283
2024-05-23 12:20:15,118.11620116021385
2024-05-23 12:20:15,118.70549717023205
2024-05-23 12:20:15,118.01879165287313
2024-05-23 12:20:15,117.19062567881929
2024-05-23 12:20:15,116.92895381984253
2024-05-23 12:20:15,117.22844884971673
2024-05-23 12:20:15,117.49663482386241
2024-05-23 12:20:15,116.80362550841082
2024-05-23 12:20:15,114.30018569348093
2024-05-23 12:20:15,109.84667518243158
2024-05-23 12:20:15,104.40239881878698
2024-05-23 12:20:15,99.66074148560175
2024-05-23 12:20:15,97.11358041785265
2024-05-23 12:20:15,97.27350678462703
2024-05-23 12:20:15,99.5079718326522
2024-05-23 12:20:15,102.47224665245227
2024-05-23 12:20:15,104.87128508225886
2024-05-23 12:20:15,106.17052674791854
2024-05-23 12:20:15,106.86906488588885
2024-05-23 12:20:15,108.10533073703915
2024-05-23 12:20:15,110.77405336695354
2024-05-23 12:20:15,114.77351793264019
2024-05-23 12:20:15,118.97489710581661
2024-05-23 12:20:15,121.91725102153806
2024-05-23 12:20:15,122.61296788959017
2024-05-23 12:20:15,120.90404591647697
2024-05-23 12:20:15,117.347073436275
2024-05-23 12:20:15,112.90338777103628
2024-05-23 12:20:15,108.59116167468947
2024-05-23 12:20:15,105.16452680067648
2024-05-23 12:20:15,103.01115974572497
2024-05-23 12:20:15,102.37193350991629
2024-05-23 12:20:15,103.51322930172512
2024-05-23 12:20:15,106.34748332153508
2024-05-23 12:20:15,109.79615197070221
2024-05-23 12:20:15,111.94954801175238
2024-05-23 12:20:15,111.32433446376108
2024-05-23 12:20:15,108.07177346715008
2024-05-23 12:20:15,103.88937762924868
2024-05-23 12:20:15,100.71720514578513
2024-05-23 12:20:15,99.44059524653562
2024-05-23 12:20:15,99.66075902072619
2024-05-23 12:20:15,100.45447809309769
2024-05-23 12:20:15,101.2796807223022
2024-05-23 12:20:15,102.34344691465544
2024-05-23 12:20:15,104.23668444208772
2024-05-23 12:20:15,107.09720716120292
2024-05-23 12:20:15,110.08949804951139
2024-05-23 12:20:15,111.94726826555346
2024-05-23 12:20:15,112.16735929306806
2024-05-23 12:20:15,111.5622906838106
2024-05-23 12:20:15,111.5536724040859
2024-05-23 12:20:15,112.91640914267323
2024-05-23 12:20:15,115.14939682784417
2024-05-23 12:20:15,116.95978458415304
2024-05-23 12:20:15,117.30582605366062
2024-05-23 12:20:15,116.05331002755368
2024-05-23 12:20:15,113.88627812810815
2024-05-23 12:20:15,111.84683903590484
2024-05-23 12:20:15,110.87646891238508
2024-05-23 12:20:15,111.40320232326822
2024-05-23 12:20:15,113.05943501216483
2024-05-23 12:20:15,114.78618348058092
2024-05-23 12:20:15,115.44146570329458
2024-05-23 12:20:15,114.58759796400979
2024-05-23 12:20:15,112.86097685424264
2024-05-23 12:20:15,111.57360360709511
2024-05-23 12:20:15,111.80671860713295
2024-05-23 12:20:15,113.66285160746322
2024-05-23 12:20:15,116.21932191662918
2024-05-23 12:20:15,118.21433320247696
2024-05-23 12:20:15,118.9285850305787
2024-05-23 12:20:15,118.56203261596457
2024-05-23 12:20:15,117.8884763176285
2024-05-23 12:20:15,117.61018348254437
2024-05-23 12:20:15,117.9740241642512
2024-05-23 12:20:15,118.79656440502607
2024-05-23 12:20:15,119.76561698479634
2024-05-23 12:20:15,120.84835261120094
2024-05-23 12:20:15,122.46947191891448
2024-05-23 12:20:15,125.21671941982311
2024-05-23 12:20:15,129.41787239646314
2024-05-23 12:20:15,134.9431369251787
2024-05-23 12:20:15,140.9064389917503
2024-05-23 12:20:15,145.21899520728766
2024-05-23 12:20:15,145.05267848740706
2024-05-23 12:20:15,138.73482456217695
2024-05-23 12:20:15,127.58569330365751
2024-05-23 12:20:15,115.71711786606012
2024-05-23 12:20:15,107.66294279435289
2024-05-23 12:20:15,105.69543365629535
2024-05-23 12:20:15,108.8257396169713
2024-05-23 12:20:15,113.98086956732479
2024-05-23 12:20:15,118.25806905203932
2024-05-23 12:20:15,120.53280109725027
2024-05-23 12:20:15,121.37069265521416
2024-05-23 12:20:15,121.61203384989109
2024-05-23 12:20:15,121.13923600492745
2024-05-23 12:20:15,119.05036393588615
2024-05-23 12:20:15,114.88092751789016
2024-05-23 12:20:15,109.40837266355531
2024-05-23 12:20:15,104.2284259968605
2024-05-23 12:20:15,100.7210365110604
2024-05-23 12:20:15,99.43267820269651
2024-05-23 12:20:15,100.1718117548078
2024-05-23 12:20:15,102.42349166096696
2024-05-23 12:20:15,105.57842971111675
2024-05-23 12:20:15,108.87940087203422
2024-05-23 12:20:15,111.48887932699044
2024-05-23 12:20:15,112.98297430075245
2024-05-23 12:20:15,113.80669400927121
2024-05-23 12:20:15,114.92124419416335
2024-05-23 12:20:15,116.77983376894129
2024-05-23 12:20:15,118.74202045206816
2024-05-23 12:20:15,119.62703245493002
2024-05-23 12:20:15,118.80508102198893
2024-05-23 12:20:15,116.6802865113736
2024-05-23 12:20:15,114.17187955902766
2024-05-23 12:20:15,111.94808040012708
2024-05-23 12:20:15,110.27847178687398
2024-05-23 12:20:15,109.43260589728072
2024-05-23 12:20:15,109.84936990032575
2024-05-23 12:20:15,111.71684575003319
2024-05-23 12:20:15,114.44262924514015
2024-05-23 12:20:15,116.67782295351812
2024-05-23 12:20:15,117.15286518541609
2024-05-23 12:20:15,115.9197238480918
2024-05-23 12:20:15,114.85837234223816
2024-05-23 12:20:15,116.46329615344605
2024-05-23 12:20:15,121.56013761784575
2024-05-23 12:20:15,128.10798984505234
2024-05-23 12:20:15,132.438905562731
2024-05-23 12:20:15,131.90370431466857
2024-05-23 12:20:15,126.6739426981292
2024-05-23 12:20:15,119.45238320000816
2024-05-23 12:20:15,113.67834758137766
2024-05-23 12:20:15,111.63145920735113
2024-05-23 12:20:15,113.45219991400585
2024-05-23 12:20:15,117.41818012524011
2024-05-23 12:20:15,121.16411493246532
2024-05-23 12:20:15,122.99634648285303
2024-05-23 12:20:15,122.47820297406682
2024-05-23 12:20:15,120.16245110035125
2024-05-23 12:20:15,116.98890643194954
2024-05-23 12:20:15,113.78833038065753
2024-05-23 12:20:15,111.01938612387247
2024-05-23 12:20:15,108.80893435512037
2024-05-23 12:20:15,107.27693720383319
2024-05-23 12:20:15,106.81342361028089
2024-05-23 12:20:15,107.89985341790194
2024-05-23 12:20:15,110.5996585006229
2024-05-23 12:20:15,114.29913785278217
2024-05-23 12:20:15,117.99561939576422
2024-05-23 12:20:15,120.8161630112947
2024-05-23 12:20:15,122.30075954025682
2024-05-23 12:20:15,122.35425950140376
2024-05-23 12:20:15,121.09026183603602
2024-05-23 12:20:15,118.7802645315038
2024-05-23 12:20:15,115.94712340148538
2024-05-23 12:20:15,113.3522833901014
2024-05-23 12:20:15,111.59957146011114
2024-05-23 12:20:15,110.58217742057838
2024-05-23 12:20:15,109.44401711220925
2024-05-23 12:20:15,107.32883215878063
2024-05-23 12:20:15,104.31945816330202
2024-05-23 12:20:15,101.72113699230658
2024-05-23 12:20:15,101.39351686480377
2024-05-23 12:20:15,104.53483648701737
2024-05-23 12:20:15,110.75042622606986
2024-05-23 12:20:15,118.1208433821718
2024-05-23 12:20:15,124.23616919063093
2024-05-23 12:20:15,127.41059080588582
2024-05-23 12:20:15,127.35142182554156
2024-05-23 12:20:15,125.10200986936786
2024-05-23 12:20:15,122.38048089731676
2024-05-23 12:20:15,120.66195498269404
2024-05-23 12:20:15,120.57025603744493
2024-05-23 12:20:15,121.7684706713678
2024-05-23 12:20:15,123.04306397742846
2024-05-23 12:20:15,122.65181080945689
2024-05-23 12:20:15,119.31665201680728
2024-05-23 12:20:15,113.38444045527892
2024-05-23 12:20:15,106.94519987240383
2024-05-23 12:20:15,102.5196537596027
2024-05-23 12:20:15,101.37511874257416
2024-05-23 12:20:15,102.92202272806529
2024-05-23 12:20:15,105.55944730049492
2024-05-23 12:20:15,107.960859798909
2024-05-23 12:20:15,109.68271877993087
2024-05-23 12:20:15,110.93357067761981
2024-05-23 12:20:15,112.04928451741831
2024-05-23 12:20:15,113.11494997809261
2024-05-23 12:20:15,113.87320055509497
2024-05-23 12:20:15,113.87733790685947
2024-05-23 12:20:15,112.75045776378951
2024-05-23 12:20:15,110.45150575531116
2024-05-23 12:20:15,107.47932481595164
2024-05-23 12:20:15,104.81772606509828
2024-05-23 12:20:15,103.46996683238
2024-05-23 12:20:15,103.83491174716565
2024-05-23 12:20:15,105.44445949871448
2024-05-23 12:20:15,107.26951375187814
2024-05-23 12:20:15,108.34785896253862
2024-05-23 12:20:15,108.33435476889416
2024-05-23 12:20:15,107.59373549311434
2024-05-23 12:20:15,106.72079997305681
2024-05-23 12:20:15,105.91925440204315
2024-05-23 12:20:15,104.88231853506527
2024-05-23 12:20:15,103.3227016678118
2024-05-23 12:20:15,101.56315835794459
2024-05-23 12:20:15,100.49420003451753
2024-05-23 12:20:15,100.86057828542691
2024-05-23 12:20:15,102.62690370706304
2024-05-23 12:20:15,105.1285372376606
2024-05-23 12:20:15,107.8298148039636
2024-05-23 12:20:15,110.82228677928826
2024-05-23 12:20:15,114.44141740052419
2024-05-23 12:20:15,118.34849265313203
2024-05-23 12:20:15,121.18590231906494
2024-05-23 12:20:15,121.40576279605922
2024-05-23 12:20:15,118.59130488069378
2024-05-23 12:20:15,114.1626494789003
2024-05-23 12:20:15,110.94318794251222
2024-05-23 12:20:15,111.56148365137716
2024-05-23 12:20:15,116.34054813247164
2024-05-23 12:20:15,122.38524701051531
2024-05-23 12:20:15,125.15547303549639
2024-05-23 12:20:15,121.54704672880796
2024-05-23 12:20:15,112.06018948632726
2024-05-23 12:20:15,100.52052515930437
2024-05-23 12:20:15,91.74491533914262
2024-05-23 12:20:15,88.77266567392057
2024-05-23 12:20:15,91.31467815732707
2024-05-23 12:20:15,96.24538461954945
2024-05-23 12:20:15,99.70834988736573
2024-05-23 12:20:15,99.38846673119386
2024-05-23 12:20:15,95.49808156490319
2024-05-23 12:20:15,90.10457126759047
2024-05-23 12:20:15,85.66626386671707
2024-05-23 12:20:16,83.83810098175445
2024-05-23 12:20:16,84.99623999486792
2024-05-23 12:20:16,88.3947643048947
2024-05-23 12:20:16,92.72778075976362
2024-05-23 12:20:16,96.83225793863564
2024-05-23 12:20:16,100.12358458104335
2024-05-23 12:20:16,102.53424386467962
2024-05-23 12:20:16,104.2087643097888
2024-05-23 12:20:16,105.40565921972194
2024-05-23 12:20:16,106.6256925699308
2024-05-23 12:20:16,108.52904677124978
2024-05-23 12:20:16,111.48749981210824
2024-05-23 12:20:16,115.16758863642795
2024-05-23 12:20:16,118.54496390573232
2024-05-23 12:20:16,120.4032724659767
2024-05-23 12:20:16,120.05917924065524
2024-05-23 12:20:16,117.84416326327182
2024-05-23 12:20:16,114.93470523028923
2024-05-23 12:20:16,112.65615703842028
2024-05-23 12:20:16,111.81979069018786
2024-05-23 12:20:16,112.45749417310498
2024-05-23 12:20:16,113.93653960035772
2024-05-23 12:20:16,115.2922204934377
2024-05-23 12:20:16,115.60597642320617
2024-05-23 12:20:16,114.36157359299612
2024-05-23 12:20:16,111.755101626762
2024-05-23 12:20:16,108.79331767304701
2024-05-23 12:20:16,106.93126384918914
2024-05-23 12:20:16,107.29618834795659
2024-05-23 12:20:16,109.98670025026502
2024-05-23 12:20:16,114.00139181741521
2024-05-23 12:20:16,117.95593596975982
2024-05-23 12:20:16,121.0892474463278
2024-05-23 12:20:16,123.62207907775999
2024-05-23 12:20:16,126.00012731298136
2024-05-23 12:20:16,127.81793692447178
2024-05-23 12:20:16,127.84123475595848
2024-05-23 12:20:16,125.3531953127247
2024-05-23 12:20:16,121.30214089123483
2024-05-23 12:20:16,117.73145968396871
2024-05-23 12:20:16,115.96059028376008
2024-05-23 12:20:16,115.54470231954701
2024-05-23 12:20:16,115.10602981321156
2024-05-23 12:20:16,113.93015015289497
2024-05-23 12:20:16,112.59478416014201
2024-05-23 12:20:16,112.25108325637471
2024-05-23 12:20:16,113.55098407837296
2024-05-23 12:20:16,116.16328897056262
2024-05-23 12:20:16,119.05000702746916
2024-05-23 12:20:16,121.21610645652034
2024-05-23 12:20:16,122.37658574911113
2024-05-23 12:20:16,123.00885412746209
2024-05-23 12:20:16,123.78175348490689
2024-05-23 12:20:16,124.94685262613922
2024-05-23 12:20:16,126.26830899397899
2024-05-23 12:20:16,127.38786067252371
2024-05-23 12:20:16,128.04118496982224
2024-05-23 12:20:16,127.9074044399058
2024-05-23 12:20:16,126.55774204106515
2024-05-23 12:20:16,123.9023436228037
2024-05-23 12:20:16,120.68642213366977
2024-05-23 12:20:16,118.23524660040425
2024-05-23 12:20:16,117.4429356347249
2024-05-23 12:20:16,117.99596378605217
2024-05-23 12:20:16,118.70992691333814
2024-05-23 12:20:16,118.67048974064042
2024-05-23 12:20:16,117.9903793389831
2024-05-23 12:20:16,117.48611927611176
2024-05-23 12:20:16,117.77136301581245
2024-05-23 12:20:16,118.70621348310627
2024-05-23 12:20:16,119.56467675901686
2024-05-23 12:20:16,119.61232023997847
2024-05-23 12:20:16,118.57446175595268
2024-05-23 12:20:16,116.69286903373113
2024-05-23 12:20:16,114.50699647666846
2024-05-23 12:20:16,112.66108101722608
2024-05-23 12:20:16,111.79083009280714
2024-05-23 12:20:16,112.31274604721047
2024-05-23 12:20:16,114.1781793092568
2024-05-23 12:20:16,116.8495558425714
2024-05-23 12:20:16,119.52560533128609
2024-05-23 12:20:16,121.50942676074888
2024-05-23 12:20:16,122.59409149471925
2024-05-23 12:20:16,123.13264028132127
2024-05-23 12:20:16,123.54359968641279
2024-05-23 12:20:16,123.66224250972229
2024-05-23 12:20:16,122.72103445865929
2024-05-23 12:20:16,120.1151864194023
2024-05-23 12:20:16,116.30273456109956
2024-05-23 12:20:16,113.02410366381022
2024-05-23 12:20:16,112.42600499337085
2024-05-23 12:20:16,115.54139677900598
2024-05-23 12:20:16,121.34809369907899
2024-05-23 12:20:16,127.25568937315748
2024-05-23 12:20:16,130.70344770796342
2024-05-23 12:20:16,130.7403285162368
2024-05-23 12:20:16,128.51233587650452
2024-05-23 12:20:16,126.25843319040328
2024-05-23 12:20:16,125.53511269710185
2024-05-23 12:20:16,126.06394945523951
2024-05-23 12:20:16,126.06435209421704
2024-05-23 12:20:16,123.7198670124279
2024-05-23 12:20:16,118.5446498229016
2024-05-23 12:20:16,111.62110522402779
2024-05-23 12:20:16,104.85574543230938
2024-05-23 12:20:16,100.14726923080865
2024-05-23 12:20:16,98.88761033634927
2024-05-23 12:20:16,101.60353849664605
2024-05-23 12:20:16,107.75437818195537
2024-05-23 12:20:16,115.8933839091091
2024-05-23 12:20:16,124.08787351447202
2024-05-23 12:20:16,130.37954270633284
2024-05-23 12:20:16,133.26726005835087
2024-05-23 12:20:16,132.17392980427638
2024-05-23 12:20:16,127.68071791607392
2024-05-23 12:20:16,121.32773418635631
2024-05-23 12:20:16,114.9834369631795
2024-05-23 12:20:16,110.05000559200076
2024-05-23 12:20:16,106.99226202113346
2024-05-23 12:20:16,105.51087907516205
2024-05-23 12:20:16,105.10152221834417
2024-05-23 12:20:16,105.41927698154652
2024-05-23 12:20:16,106.21382803501486
2024-05-23 12:20:16,107.137529058094
2024-05-23 12:20:16,107.75474271562513
2024-05-23 12:20:16,107.70674544662283
2024-05-23 12:20:16,106.92260267451297
2024-05-23 12:20:16,105.86770400164939
2024-05-23 12:20:16,105.50418655156946
2024-05-23 12:20:16,106.56130047120197
2024-05-23 12:20:16,108.6055935911597
2024-05-23 12:20:16,110.08205743462771
2024-05-23 12:20:16,109.53326894502757
2024-05-23 12:20:16,106.84064799366156
2024-05-23 12:20:16,103.36588396982116
2024-05-23 12:20:16,100.97894235586293
2024-05-23 12:20:16,100.81803492990672
2024-05-23 12:20:16,102.63618037206247
2024-05-23 12:20:16,105.04864132717123
2024-05-23 12:20:16,106.50822748678195
2024-05-23 12:20:16,106.39753985816884
2024-05-23 12:20:16,105.42010479404519
2024-05-23 12:20:16,104.95208154018611
2024-05-23 12:20:16,105.98546240467886
2024-05-23 12:20:16,108.72263164159321
2024-05-23 12:20:16,112.96183984234888
2024-05-23 12:20:16,118.39895742681759
2024-05-23 12:20:16,124.36184520113181
2024-05-23 12:20:16,129.621863665419
2024-05-23 12:20:16,133.02809373946124
2024-05-23 12:20:16,134.47491576514366
2024-05-23 12:20:16,134.9933321300362
2024-05-23 12:20:16,135.70852611954325
2024-05-23 12:20:16,136.72805303190765
2024-05-23 12:20:16,137.02811792462543
2024-05-23 12:20:16,135.34461668782012
2024-05-23 12:20:16,131.26278036671982
2024-05-23 12:20:16,125.6109909728311
2024-05-23 12:20:16,119.89023243985916
2024-05-23 12:20:16,115.35135225166243
2024-05-23 12:20:16,112.51342842251267
2024-05-23 12:20:16,111.31103071391752
2024-05-23 12:20:16,111.46004365508227
2024-05-23 12:20:16,112.59652320872829
2024-05-23 12:20:16,114.15511042424185
2024-05-23 12:20:16,115.33987355764556
2024-05-23 12:20:16,115.53380598575964
2024-05-23 12:20:16,114.93746267759683
2024-05-23 12:20:16,114.70898413600288
2024-05-23 12:20:16,116.24282142197546
2024-05-23 12:20:16,120.08485020711291
2024-05-23 12:20:16,125.376343664612
2024-05-23 12:20:16,130.29348750509521
2024-05-23 12:20:16,133.140739928926
2024-05-23 12:20:16,133.21825991933724
2024-05-23 12:20:16,130.89315443841247
2024-05-23 12:20:16,127.22976702077915
2024-05-23 12:20:16,123.79436134502535
2024-05-23 12:20:16,122.42177714159502
2024-05-23 12:20:16,124.31578331953381
2024-05-23 12:20:16,128.83817430882758
2024-05-23 12:20:16,133.32131527532346
2024-05-23 12:20:16,134.4987642514607
2024-05-23 12:20:16,130.51314291139008
2024-05-23 12:20:16,121.92429974913175
2024-05-23 12:20:16,111.15206675457772
2024-05-23 12:20:16,101.1627569369504
2024-05-23 12:20:16,94.49092079662869
2024-05-23 12:20:16,92.79778706939304
2024-05-23 12:20:16,96.55693191367591
2024-05-23 12:20:16,104.77133942605413
2024-05-23 12:20:16,115.0605329439247
2024-05-23 12:20:16,124.34474371669694
2024-05-23 12:20:16,129.9726140810945
2024-05-23 12:20:16,130.8296210651554
2024-05-23 12:20:16,127.80633029681275
2024-05-23 12:20:16,123.22761210495334
2024-05-23 12:20:16,119.49513507129417
2024-05-23 12:20:16,117.82987353278752
2024-05-23 12:20:16,117.96424882427846
2024-05-23 12:20:16,118.75434747891055
2024-05-23 12:20:16,118.96054938928599
2024-05-23 12:20:16,117.65896261110156
2024-05-23 12:20:16,114.43466265827522
2024-05-23 12:20:16,109.63111924810323
2024-05-23 12:20:16,104.42029381729645
2024-05-23 12:20:16,100.34073502870557
2024-05-23 12:20:16,98.53597008858364
2024-05-23 12:20:16,99.30062962186426
2024-05-23 12:20:16,102.14995454425205
2024-05-23 12:20:16,106.14993907832357
2024-05-23 12:20:16,110.2870362204542
2024-05-23 12:20:16,113.795252652999
2024-05-23 12:20:16,116.3407744921639
2024-05-23 12:20:16,117.97986959207476
2024-05-23 12:20:16,118.95288673024622
2024-05-23 12:20:16,119.46353391437471
2024-05-23 12:20:16,119.52682915077489
2024-05-23 12:20:16,118.90703764914669
2024-05-23 12:20:16,117.24369145946433
2024-05-23 12:20:16,114.41694255947289
2024-05-23 12:20:16,110.94714498204328
2024-05-23 12:20:16,108.04488211355633
2024-05-23 12:20:16,107.05610497602918
2024-05-23 12:20:16,108.47118458251131
2024-05-23 12:20:16,111.27180074172205
2024-05-23 12:20:16,113.4551061717425
2024-05-23 12:20:16,113.49010415845169
2024-05-23 12:20:16,111.40179199992457
2024-05-23 12:20:16,108.62150402791315
2024-05-23 12:20:16,106.95401842043805
2024-05-23 12:20:16,107.49767943808514
2024-05-23 12:20:16,110.04900779468335
2024-05-23 12:20:16,113.21280463891668
2024-05-23 12:20:16,115.20596766834093
2024-05-23 12:20:16,114.90634039886835
2024-05-23 12:20:16,112.4415932278433
2024-05-23 12:20:16,108.94760136031002
2024-05-23 12:20:16,105.77204327068927
2024-05-23 12:20:16,103.74444454429569
2024-05-23 12:20:16,102.92311038736892
2024-05-23 12:20:16,102.82946339941618
2024-05-23 12:20:16,102.88815469000934
2024-05-23 12:20:16,102.74898301530723
2024-05-23 12:20:16,102.31067832910179
2024-05-23 12:20:16,101.49409053528926
2024-05-23 12:20:16,100.04115939836144
2024-05-23 12:20:16,97.63625516501986
2024-05-23 12:20:16,94.29168361959789
2024-05-23 12:20:16,90.52255745350652
2024-05-23 12:20:16,87.04568396417304
2024-05-23 12:20:16,84.37538140098954
2024-05-23 12:20:16,82.7864298526708
2024-05-23 12:20:16,82.55877862938462
2024-05-23 12:20:16,84.08614545291083
2024-05-23 12:20:16,87.61197769321083
2024-05-23 12:20:17,92.78351039250212
2024-05-23 12:20:17,98.43359549727877
2024-05-23 12:20:17,102.92947428684188
2024-05-23 12:20:17,105.07476949932277
2024-05-23 12:20:17,104.92520809927521
2024-05-23 12:20:17,103.69759011850424
2024-05-23 12:20:17,102.78676331398408
2024-05-23 12:20:17,102.82685708706154
2024-05-23 12:20:17,103.56046400479877
2024-05-23 12:20:17,104.36165545485514
2024-05-23 12:20:17,104.83430359017862
2024-05-23 12:20:17,104.99232959952913
2024-05-23 12:20:17,104.83419545526341
2024-05-23 12:20:17,103.77471448307632
2024-05-23 12:20:17,100.86168479016116
2024-05-23 12:20:17,96.00939763227582
2024-05-23 12:20:17,91.08010325923512
2024-05-23 12:20:17,89.30445232460599
2024-05-23 12:20:17,92.9712584360501
2024-05-23 12:20:17,101.18819467778992
2024-05-23 12:20:17,109.85990326900364
2024-05-23 12:20:17,114.24883205773358
2024-05-23 12:20:17,112.18383769884004
2024-05-23 12:20:17,105.38421872814423
2024-05-23 12:20:17,98.01860328027252
2024-05-23 12:20:17,93.90580438656563
2024-05-23 12:20:17,94.55759180779327
2024-05-23 12:20:17,99.12711063736526
2024-05-23 12:20:17,105.65415284920057
2024-05-23 12:20:17,112.22926977684175
2024-05-23 12:20:17,117.32168102667409
2024-05-23 12:20:17,119.59672199516075
2024-05-23 12:20:17,117.86972938704673
2024-05-23 12:20:17,111.78029529487117
2024-05-23 12:20:17,103.36859330206794
2024-05-23 12:20:17,97.94109365148344
2024-05-23 12:20:17,101.6510922985854
2024-05-23 12:20:17,116.5709972048353
2024-05-23 12:20:17,138.14864711483668
2024-05-23 12:20:17,157.75499231181752
2024-05-23 12:20:17,167.71040958160802
2024-05-23 12:20:17,164.56291942939782
2024-05-23 12:20:17,149.41433369662016
2024-05-23 12:20:17,126.90955917908681
2024-05-23 12:20:17,103.89163775457186
2024-05-23 12:20:17,87.05089642856407
2024-05-23 12:20:17,79.781524246029
2024-05-23 12:20:17,80.59349264164489
2024-05-23 12:20:17,84.87961893873535
2024-05-23 12:20:17,88.57960179001101
2024-05-23 12:20:17,90.38627518107651
2024-05-23 12:20:17,90.9251327011449
2024-05-23 12:20:17,90.61088566342877
2024-05-23 12:20:17,88.93636994529768
2024-05-23 12:20:17,85.78094056882419
2024-05-23 12:20:17,82.68843184495707
2024-05-23 12:20:17,82.19056026752811
2024-05-23 12:20:17,85.70789530942844
2024-05-23 12:20:17,92.25139194597776
2024-05-23 12:20:17,99.17680088016465
2024-05-23 12:20:17,104.06177827837885
2024-05-23 12:20:17,106.0793443332988
2024-05-23 12:20:17,106.370470281433
2024-05-23 12:20:17,107.52695865655822
2024-05-23 12:20:17,111.99767682034845
2024-05-23 12:20:17,120.3308567676126
2024-05-23 12:20:17,131.0481766246324
2024-05-23 12:20:17,141.6988478584879
2024-05-23 12:20:17,149.25780134844152
2024-05-23 12:20:17,150.3425156587563
2024-05-23 12:20:17,142.8458891440788
2024-05-23 12:20:17,128.13945927436197
2024-05-23 12:20:17,111.24270012214794
2024-05-23 12:20:17,98.1330229716384
2024-05-23 12:20:17,92.33746430602636
2024-05-23 12:20:17,93.50099252699853
2024-05-23 12:20:17,98.51287889187441
2024-05-23 12:20:17,103.66054644845711
2024-05-23 12:20:17,106.22155639322874
2024-05-23 12:20:17,105.12057879201072
2024-05-23 12:20:17,101.00918962858823
2024-05-23 12:20:17,95.92858496369519
2024-05-23 12:20:17,92.39606136378677
2024-05-23 12:20:17,92.07052144292906
2024-05-23 12:20:17,94.7613277542428
2024-05-23 12:20:17,98.53838107152185
2024-05-23 12:20:17,100.93092594301619
2024-05-23 12:20:17,100.42035693011552
2024-05-23 12:20:17,97.35669296451009
2024-05-23 12:20:17,93.77461906642665
2024-05-23 12:20:17,92.15065028095042
2024-05-23 12:20:17,93.87418885657071
2024-05-23 12:20:17,98.47882311997813
2024-05-23 12:20:17,104.07775592176117
2024-05-23 12:20:17,108.61398578382169
2024-05-23 12:20:17,111.07454708716391
2024-05-23 12:20:17,111.85141006251163
2024-05-23 12:20:17,112.01445165150342
2024-05-23 12:20:17,112.22815671636026
2024-05-23 12:20:17,112.37523253816246
2024-05-23 12:20:17,112.1520049265093
2024-05-23 12:20:17,111.87083328490058
2024-05-23 12:20:17,112.53428508970045
2024-05-23 12:20:17,115.02578396616238
2024-05-23 12:20:17,119.17834853468798
2024-05-23 12:20:17,123.6252694191962
2024-05-23 12:20:17,126.64065094947966
2024-05-23 12:20:17,127.3067483803643
2024-05-23 12:20:17,126.09471170859206
2024-05-23 12:20:17,124.42986459720498
2024-05-23 12:20:17,123.59496331850588
2024-05-23 12:20:17,123.84659478376773
2024-05-23 12:20:17,124.40096885541894
2024-05-23 12:20:17,124.22077925007642
2024-05-23 12:20:17,122.93397427472212
2024-05-23 12:20:17,121.18618894475559
2024-05-23 12:20:17,120.16307085042739
2024-05-23 12:20:17,120.54076635763637
2024-05-23 12:20:17,121.69981098036595
2024-05-23 12:20:17,122.07075476857374
2024-05-23 12:20:17,120.39664377399953
2024-05-23 12:20:17,116.73746999505491
2024-05-23 12:20:17,112.42263023242718
2024-05-23 12:20:17,109.17284249048832
2024-05-23 12:20:17,108.11799168437707
2024-05-23 12:20:17,109.3121212868531
2024-05-23 12:20:17,111.9169319355617
2024-05-23 12:20:17,114.7611516293105
2024-05-23 12:20:17,116.88441988454919
2024-05-23 12:20:17,117.8638274699535
2024-05-23 12:20:17,117.85089081172804
2024-05-23 12:20:17,117.38610594796316
2024-05-23 12:20:17,117.13732450222318
2024-05-23 12:20:17,117.68266098939093
2024-05-23 12:20:17,119.28602906718574
2024-05-23 12:20:17,121.61752588696066
2024-05-23 12:20:17,123.67909227549461
2024-05-23 12:20:17,124.25063296696769
2024-05-23 12:20:17,122.67213206728496
2024-05-23 12:20:17,119.35843121387579
2024-05-23 12:20:17,115.62007817774538
2024-05-23 12:20:17,112.9627265496261
2024-05-23 12:20:17,112.37644106693364
2024-05-23 12:20:17,113.98621342802657
2024-05-23 12:20:17,117.09558338352316
2024-05-23 12:20:17,120.52590245866242
2024-05-23 12:20:17,123.17628383192861
2024-05-23 12:20:17,124.53964142068563
2024-05-23 12:20:17,124.80315737727508
2024-05-23 12:20:17,124.54996256705331
2024-05-23 12:20:17,124.43778285691249
2024-05-23 12:20:17,125.04616437477918
2024-05-23 12:20:17,126.70515277513226
2024-05-23 12:20:17,129.20172670685798
2024-05-23 12:20:17,131.6586481701233
2024-05-23 12:20:17,132.84680007075733
2024-05-23 12:20:17,131.75164294712758
2024-05-23 12:20:17,128.05727256504642
2024-05-23 12:20:17,122.4359886195795
2024-05-23 12:20:17,116.60078929454862
2024-05-23 12:20:17,112.86720735956688
2024-05-23 12:20:17,113.07304497960563
2024-05-23 12:20:17,117.26844011548378
2024-05-23 12:20:17,123.17812758879205
2024-05-23 12:20:17,127.20695624148584
2024-05-23 12:20:17,126.53554120762044
2024-05-23 12:20:17,120.81242815102387
2024-05-23 12:20:17,112.26001503359682
2024-05-23 12:20:17,104.30369680990877
2024-05-23 12:20:17,99.76000596514208
2024-05-23 12:20:17,99.62033958014578
2024-05-23 12:20:17,102.95673550378902
2024-05-23 12:20:17,107.83806749226173
2024-05-23 12:20:17,112.52011811149474
2024-05-23 12:20:17,116.0281663450927
2024-05-23 12:20:17,117.90420131687371
2024-05-23 12:20:17,117.84834926418586
2024-05-23 12:20:17,115.8964633340983
2024-05-23 12:20:17,112.81940383469801
2024-05-23 12:20:17,109.99963672566345
2024-05-23 12:20:17,108.68080676985326
2024-05-23 12:20:17,109.21222620627165
2024-05-23 12:20:17,110.87759218124118
2024-05-23 12:20:17,112.4215758708649
2024-05-23 12:20:17,112.94169037552885
2024-05-23 12:20:17,112.49872671784948
2024-05-23 12:20:17,111.9333628844355
2024-05-23 12:20:17,112.08357502739383
2024-05-23 12:20:17,113.18767991690615
2024-05-23 12:20:17,114.92625455792856
2024-05-23 12:20:17,116.77380181898498
2024-05-23 12:20:17,118.16694814532016
2024-05-23 12:20:17,118.46499461956105
2024-05-23 12:20:17,117.03505677282905
2024-05-23 12:20:17,113.64735671973114
2024-05-23 12:20:17,108.95591738426812
2024-05-23 12:20:17,104.569950824252
2024-05-23 12:20:17,102.38916746480646
2024-05-23 12:20:17,103.46403142698608
2024-05-23 12:20:17,107.19888914222842
2024-05-23 12:20:17,111.59022633035039
2024-05-23 12:20:17,114.40549896275644
2024-05-23 12:20:17,114.43812103497547
2024-05-23 12:20:17,111.97911548394897
2024-05-23 12:20:17,108.26767156867533
2024-05-23 12:20:17,104.40329165523114
2024-05-23 12:20:17,100.64040477016364
2024-05-23 12:20:17,96.66957398608798
2024-05-23 12:20:17,92.51389205716602
2024-05-23 12:20:17,89.1309540430088
2024-05-23 12:20:17,88.22781759875485
2024-05-23 12:20:17,91.2973781160604
2024-05-23 12:20:17,98.28140824363724
2024-05-23 12:20:17,107.23577269368617
2024-05-23 12:20:17,115.87876243525713
2024-05-23 12:20:17,123.21546454156947
2024-05-23 12:20:17,129.25783633256586
2024-05-23 12:20:17,133.8581164137511
2024-05-23 12:20:17,136.32092943320367
2024-05-23 12:20:17,135.73714287543555
2024-05-23 12:20:17,131.60210127411113
2024-05-23 12:20:17,124.54673177241858
2024-05-23 12:20:17,116.57374904581158
2024-05-23 12:20:17,110.32057545251678
2024-05-23 12:20:17,107.73101952249448
2024-05-23 12:20:17,109.02589583423624
2024-05-23 12:20:17,112.65295431799125
2024-05-23 12:20:17,116.18796026667371
2024-05-23 12:20:17,117.54804766860639
2024-05-23 12:20:17,115.88075656641988
2024-05-23 12:20:17,111.83947978999336
2024-05-23 12:20:17,107.14918924032764
2024-05-23 12:20:17,103.61840155093115
2024-05-23 12:20:17,102.21120253242707
2024-05-23 12:20:17,102.76213497622409
2024-05-23 12:20:17,104.30371071592006
2024-05-23 12:20:17,105.64169378434724
2024-05-23 12:20:17,105.93121856751563
2024-05-23 12:20:17,105.04279853928189
2024-05-23 12:20:17,103.45990146372445
2024-05-23 12:20:17,101.82199199004603
2024-05-23 12:20:17,100.69387467592072
2024-05-23 12:20:17,100.72420861077322
2024-05-23 12:20:17,102.60369677704327
2024-05-23 12:20:17,106.49670425456407
2024-05-23 12:20:17,111.51211077642617
2024-05-23 12:20:17,115.93350568038304
2024-05-23 12:20:17,118.12236026426002
2024-05-23 12:20:17,117.38877983035272
2024-05-23 12:20:17,114.28902493348352
2024-05-23 12:20:17,110.28362107627206
2024-05-23 12:20:17,107.04912041344846
2024-05-23 12:20:17,105.82229542980794
2024-05-23 12:20:18,107.0066262150284
2024-05-23 12:20:18,110.14370641623131
2024-05-23 12:20:18,114.29192768385809
2024-05-23 12:20:18,118.58267365026246
2024-05-23 12:20:18,122.333007717249
2024-05-23 12:20:18,124.59092286622553
2024-05-23 12:20:18,124.008302546619
2024-05-23 12:20:18,119.7548138164592
2024-05-23 12:20:18,112.72575372758162
2024-05-23 12:20:18,105.58030552740401
2024-05-23 12:20:18,101.28269801770091
2024-05-23 12:20:18,101.34949564934395
2024-05-23 12:20:18,105.11595603129258
2024-05-23 12:20:18,110.32946356193081
2024-05-23 12:20:18,114.4699327913599
2024-05-23 12:20:18,115.9867300013462
2024-05-23 12:20:18,114.83489344514388
2024-05-23 12:20:18,112.13707226079917
2024-05-23 12:20:18,109.389992579075
2024-05-23 12:20:18,107.80850354895755
2024-05-23 12:20:18,108.08966468015618
2024-05-23 12:20:18,110.44853254233894
2024-05-23 12:20:18,114.55707293855976
2024-05-23 12:20:18,119.35044083805845
2024-05-23 12:20:18,123.19149501901322
2024-05-23 12:20:18,124.68016864145167
2024-05-23 12:20:18,123.52563056033975
2024-05-23 12:20:18,120.66773384855136
2024-05-23 12:20:18,117.62189746666502
2024-05-23 12:20:18,115.66457535209712
2024-05-23 12:20:18,115.37872986818462
2024-05-23 12:20:18,116.64269333214051
2024-05-23 12:20:18,118.83229777828313
2024-05-23 12:20:18,121.0533077118083
2024-05-23 12:20:18,122.41636230171524
2024-05-23 12:20:18,122.3884602848829
2024-05-23 12:20:18,121.03741423592271
2024-05-23 12:20:18,118.9114872209558
2024-05-23 12:20:18,116.63025930008234
2024-05-23 12:20:18,114.52411365535866
2024-05-23 12:20:18,112.53224625646634
2024-05-23 12:20:18,110.37806879372168
2024-05-23 12:20:18,107.90806609524942
2024-05-23 12:20:18,105.39788280725068
2024-05-23 12:20:18,103.68636269960444
2024-05-23 12:20:18,104.01239033495682
2024-05-23 12:20:18,107.3451361092183
2024-05-23 12:20:18,113.4380556397726
2024-05-23 12:20:18,120.54399612283703
2024-05-23 12:20:18,126.28165166515925
2024-05-23 12:20:18,128.9116790479078
2024-05-23 12:20:18,128.09198946227508
2024-05-23 12:20:18,124.92548831542797
2024-05-23 12:20:18,121.33892751509431
2024-05-23 12:20:18,118.8494480321955
2024-05-23 12:20:18,117.55237990149261
2024-05-23 12:20:18,116.46124996220307
2024-05-23 12:20:18,114.97346614614646
2024-05-23 12:20:18,113.87429601163662
2024-05-23 12:20:18,114.72814482612367
2024-05-23 12:20:18,118.16374224365538
2024-05-23 12:20:18,122.74951080126412
2024-05-23 12:20:18,125.74672154457625
2024-05-23 12:20:18,125.22375594738801
2024-05-23 12:20:18,121.5975118743797
2024-05-23 12:20:18,117.26327084257584
2024-05-23 12:20:18,114.74701695845218
2024-05-23 12:20:18,114.9215296566651
2024-05-23 12:20:18,116.6160157333055
2024-05-23 12:20:18,117.77598333656573
2024-05-23 12:20:18,117.11050890887564
2024-05-23 12:20:18,114.83572221549029
2024-05-23 12:20:18,112.0409868701313
2024-05-23 12:20:18,109.59715174112198
2024-05-23 12:20:18,107.80174450459275
2024-05-23 12:20:18,106.8651001553305
2024-05-23 12:20:18,107.27532341096179
2024-05-23 12:20:18,109.38908068561472
2024-05-23 12:20:18,112.74457018180685
2024-05-23 12:20:18,116.0023751462289
2024-05-23 12:20:18,117.71852047624124
2024-05-23 12:20:18,117.33397057373588
2024-05-23 12:20:18,115.56467607627192
2024-05-23 12:20:18,113.88786123079356
2024-05-23 12:20:18,113.57270718523327
2024-05-23 12:20:18,115.04246254614867
2024-05-23 12:20:18,117.93173359246036
2024-05-23 12:20:18,121.57756363704131
2024-05-23 12:20:18,125.46212586335702
2024-05-23 12:20:18,129.3135716641497
2024-05-23 12:20:18,132.91531538794044
2024-05-23 12:20:18,135.92921029474624
2024-05-23 12:20:18,137.95233306329484
2024-05-23 12:20:18,138.7024959377121
2024-05-23 12:20:18,138.13420453787543
2024-05-23 12:20:18,136.46827441464185
2024-05-23 12:20:18,134.13911880122905
2024-05-23 12:20:18,131.58467801575958
2024-05-23 12:20:18,129.0277122283147
2024-05-23 12:20:18,126.55249368553828
2024-05-23 12:20:18,124.4584297672211
2024-05-23 12:20:18,123.48213540258365
2024-05-23 12:20:18,124.64063078904394
2024-05-23 12:20:18,128.74602430616494
2024-05-23 12:20:18,135.5992069828795
2024-05-23 12:20:18,143.21054419814377
2024-05-23 12:20:18,147.99028119927084
2024-05-23 12:20:18,146.40323567108592
2024-05-23 12:20:18,137.16573169379973
2024-05-23 12:20:18,122.32209560029582
2024-05-23 12:20:18,106.3259021963058
2024-05-23 12:20:18,93.75997391987529
2024-05-23 12:20:18,87.24534239252358
2024-05-23 12:20:18,86.77051419582705
2024-05-23 12:20:18,90.42631561993095
2024-05-23 12:20:18,95.59839394088519
2024-05-23 12:20:18,99.89560805027448
2024-05-23 12:20:18,101.7270148090023
2024-05-23 12:20:18,100.6537190458749
2024-05-23 12:20:18,97.46127791008497
2024-05-23 12:20:18,93.8219074078047
2024-05-23 12:20:18,91.51143328375898
2024-05-23 12:20:18,91.44080544757037
2024-05-23 12:20:18,93.15466732622588
2024-05-23 12:20:18,95.32351293080293
2024-05-23 12:20:18,96.88364014001712
2024-05-23 12:20:18,97.81167034016876
2024-05-23 12:20:18,98.86329404592094
2024-05-23 12:20:18,100.65503288858066
2024-05-23 12:20:18,102.99823118529898
2024-05-23 12:20:18,104.98036969086687
2024-05-23 12:20:18,105.55791259647475
2024-05-23 12:20:18,104.14050579718577
2024-05-23 12:20:18,100.92084736958016
2024-05-23 12:20:18,96.91819969272349
2024-05-23 12:20:18,93.62254265830391
2024-05-23 12:20:18,92.23503458744132
2024-05-23 12:20:18,92.95929544297661
2024-05-23 12:20:18,94.97811312153831
2024-05-23 12:20:18,97.17533649147565
2024-05-23 12:20:18,98.93992745075145
2024-05-23 12:20:18,100.33686403479008
2024-05-23 12:20:18,101.59040360862028
2024-05-23 12:20:18,102.52200687065312
2024-05-23 12:20:18,102.60176301833653
2024-05-23 12:20:18,101.62215944829731
2024-05-23 12:20:18,100.3533293964705
2024-05-23 12:20:18,100.4555908935138
2024-05-23 12:20:18,103.45722884356114
2024-05-23 12:20:18,109.32444421280681
2024-05-23 12:20:18,115.77712824060374
2024-05-23 12:20:18,119.31744580155024
2024-05-23 12:20:18,117.51960935923542
2024-05-23 12:20:18,110.79607248835363
2024-05-23 12:20:18,102.20943546732832
2024-05-23 12:20:18,95.58495858945201
2024-05-23 12:20:18,93.37192443958962
2024-05-23 12:20:18,95.50134038371168
2024-05-23 12:20:18,99.64871445822311
2024-05-23 12:20:18,102.62649114012879
2024-05-23 12:20:18,102.20769047751679
2024-05-23 12:20:18,98.42017328335064
2024-05-23 12:20:18,93.51231632390429
2024-05-23 12:20:18,90.58296047792622
2024-05-23 12:20:18,91.71789110563635
2024-05-23 12:20:18,96.79901025648066
2024-05-23 12:20:18,103.73723222761464
2024-05-23 12:20:18,109.89120656326622
2024-05-23 12:20:18,113.5690170134225
2024-05-23 12:20:18,114.58000703809068
2024-05-23 12:20:18,113.74585848108082
2024-05-23 12:20:18,112.04462709514438
2024-05-23 12:20:18,110.06467821946305
2024-05-23 12:20:18,108.06767935509201
2024-05-23 12:20:18,106.45439574725414
2024-05-23 12:20:18,105.9989647174026
2024-05-23 12:20:18,107.40999631309111
2024-05-23 12:20:18,110.5458373858761
2024-05-23 12:20:18,114.09537661485335
2024-05-23 12:20:18,116.16391959070448
2024-05-23 12:20:18,115.45062316114365
2024-05-23 12:20:18,112.15113609431714
2024-05-23 12:20:18,107.8200534259427
2024-05-23 12:20:18,104.31311065305428
2024-05-23 12:20:18,102.68479146582222
2024-05-23 12:20:18,102.7646219791226
2024-05-23 12:20:18,103.53096211274804
2024-05-23 12:20:18,103.97223327526851
2024-05-23 12:20:18,103.81832963802236
2024-05-23 12:20:18,103.48176851435665
2024-05-23 12:20:18,103.28660483618377
2024-05-23 12:20:18,102.90088233262662
2024-05-23 12:20:18,101.67700982381182
2024-05-23 12:20:18,99.5675571861825
2024-05-23 12:20:18,97.61577334428975
2024-05-23 12:20:18,97.44182697393647
2024-05-23 12:20:18,100.19882799106838
2024-05-23 12:20:18,105.93241511913156
2024-05-23 12:20:18,113.63035593166342
2024-05-23 12:20:18,121.50540130542684
2024-05-23 12:20:18,127.34681865710388
2024-05-23 12:20:18,129.24119839640719
2024-05-23 12:20:18,126.53050422362386
2024-05-23 12:20:18,120.34380025783294
2024-05-23 12:20:18,113.24863952766798
2024-05-23 12:20:18,108.13149103116017
2024-05-23 12:20:18,106.85798259659113
2024-05-23 12:20:18,109.38023981583989
2024-05-23 12:20:18,113.79470470808921
2024-05-23 12:20:18,117.42565148899979
2024-05-23 12:20:18,118.44160739632511
2024-05-23 12:20:18,116.97939083845652
2024-05-23 12:20:18,114.87405132334297
2024-05-23 12:20:18,114.1813788023122
2024-05-23 12:20:18,115.74767421779644
2024-05-23 12:20:18,118.88691581550744
2024-05-23 12:20:18,122.05509683260809
2024-05-23 12:20:18,123.71147460178275
2024-05-23 12:20:18,122.9400837155126
2024-05-23 12:20:18,119.85263909979199
2024-05-23 12:20:18,115.7038257244331
2024-05-23 12:20:18,112.44502638156202
2024-05-23 12:20:18,111.74346998290659
2024-05-23 12:20:18,114.05253458938391
2024-05-23 12:20:18,118.38054081196952
2024-05-23 12:20:18,122.86142010198212
2024-05-23 12:20:18,125.72716361880964
2024-05-23 12:20:18,126.11488257741195
2024-05-23 12:20:18,124.24476104267745
2024-05-23 12:20:18,120.95411707536175
2024-05-23 12:20:18,117.18076263861164
2024-05-23 12:20:18,113.85489560497376
2024-05-23 12:20:18,111.8739660784531
2024-05-23 12:20:18,111.705548763077
2024-05-23 12:20:18,112.96498701467333
2024-05-23 12:20:18,114.67754653758378
2024-05-23 12:20:18,116.11030312499231
2024-05-23 12:20:18,117.2308068137291
2024-05-23 12:20:18,118.27692983865542
2024-05-23 12:20:18,119.02431026476212
2024-05-23 12:20:18,118.70875769196829
2024-05-23 12:20:18,116.82597236480922
2024-05-23 12:20:18,114.11171873015313
2024-05-23 12:20:18,112.73215066063966
2024-05-23 12:20:18,115.06443523593161
2024-05-23 12:20:18,121.59443691405232
2024-05-23 12:20:18,129.74568725027146
2024-05-23 12:20:18,135.11200915349232
2024-05-23 12:20:18,134.4378026537817
2024-05-23 12:20:18,127.98850257045754
2024-05-23 12:20:19,119.38029856159106
2024-05-23 12:20:19,113.02815783088366
2024-05-23 12:20:19,111.20979560361702
2024-05-23 12:20:19,112.91294563356296
2024-05-23 12:20:19,115.0853172023477
2024-05-23 12:20:19,115.0310238805984
2024-05-23 12:20:19,112.09056461940759
2024-05-23 12:20:19,107.69750186894542
2024-05-23 12:20:19,104.21704044212268
2024-05-23 12:20:19,103.45961677295897
2024-05-23 12:20:19,105.73962383816333
2024-05-23 12:20:19,110.04590622038741
2024-05-23 12:20:19,115.01564239459687
2024-05-23 12:20:19,119.72944087148127
2024-05-23 12:20:19,123.6942614421061
2024-05-23 12:20:19,126.31121583905758
2024-05-23 12:20:19,126.58781266925627
2024-05-23 12:20:19,123.5775823201244
2024-05-23 12:20:19,117.33202000207763
2024-05-23 12:20:19,109.50802504607455
2024-05-23 12:20:19,102.8855342393665
2024-05-23 12:20:19,99.97916853891188
2024-05-23 12:20:19,101.73600212514204
2024-05-23 12:20:19,107.25525807471496
2024-05-23 12:20:19,114.57969412548658
2024-05-23 12:20:19,121.79204700999334
2024-05-23 12:20:19,127.65879137634775
2024-05-23 12:20:19,131.69845843817947
2024-05-23 12:20:19,133.99821303840866
2024-05-23 12:20:19,134.95696325011406
2024-05-23 12:20:19,134.91574113934644
2024-05-23 12:20:19,133.79727242225343
2024-05-23 12:20:19,131.0689287493645
2024-05-23 12:20:19,126.28133642126059
2024-05-23 12:20:19,119.98948408017327
2024-05-23 12:20:19,114.21332696407195
2024-05-23 12:20:19,111.54451752400031
2024-05-23 12:20:19,113.2228119956654
2024-05-23 12:20:19,117.88767735268745
2024-05-23 12:20:19,122.34021654676845
2024-05-23 12:20:19,123.79673204199327
2024-05-23 12:20:19,121.85866967649757
2024-05-23 12:20:19,118.74906756256554
2024-05-23 12:20:19,117.57641782978176
2024-05-23 12:20:19,119.75094354284403
2024-05-23 12:20:19,123.59087166048758
2024-05-23 12:20:19,125.44615178743831
2024-05-23 12:20:19,122.51883476831688
2024-05-23 12:20:19,115.10484056773618
2024-05-23 12:20:19,106.49627990585674
2024-05-23 12:20:19,100.65129748933151
2024-05-23 12:20:19,99.5386524330794
2024-05-23 12:20:19,102.21678379790063
2024-05-23 12:20:19,106.05685230091909
2024-05-23 12:20:19,108.83227640897137
2024-05-23 12:20:19,110.1438472789581
2024-05-23 12:20:19,111.32506353104833
2024-05-23 12:20:19,113.95379160648376
2024-05-23 12:20:19,118.18173088907551
2024-05-23 12:20:19,122.33418950536995
2024-05-23 12:20:19,124.14657680116835
2024-05-23 12:20:19,122.56689768909806
2024-05-23 12:20:19,118.60685616688534
2024-05-23 12:20:19,114.596368875139
2024-05-23 12:20:19,112.53820030293811
2024-05-23 12:20:19,112.92129633771688
2024-05-23 12:20:19,114.70952855259254
2024-05-23 12:20:19,116.12639974626634
2024-05-23 12:20:19,115.57259583850717
2024-05-23 12:20:19,112.40835522289007
2024-05-23 12:20:19,107.40294765693656
2024-05-23 12:20:19,102.45700723740161
2024-05-23 12:20:19,99.56359670572546
2024-05-23 12:20:19,99.71966338176087
2024-05-23 12:20:19,102.5150836081964
2024-05-23 12:20:19,106.4338681259057
2024-05-23 12:20:19,109.45501994873428
2024-05-23 12:20:19,109.79743060796218
2024-05-23 12:20:19,106.8664349291124
2024-05-23 12:20:19,101.93982239742094
2024-05-23 12:20:19,97.72974049017371
2024-05-23 12:20:19,96.78095854382312
2024-05-23 12:20:19,99.87754738435379
2024-05-23 12:20:19,105.69389303563611
2024-05-23 12:20:19,111.79596865027418
2024-05-23 12:20:19,116.05530280819919
2024-05-23 12:20:19,117.46468129222383
2024-05-23 12:20:19,116.1073859271717
2024-05-23 12:20:19,112.75896781984179
2024-05-23 12:20:19,108.58858063115353
2024-05-23 12:20:19,105.00572592955098
2024-05-23 12:20:19,103.50495200908883
2024-05-23 12:20:19,105.39270048820049
2024-05-23 12:20:19,111.26012661328535
2024-05-23 12:20:19,120.19348887437909
2024-05-23 12:20:19,129.42431724335984
2024-05-23 12:20:19,135.34551858045296
2024-05-23 12:20:19,135.56149499977678
2024-05-23 12:20:19,130.3299835534906
2024-05-23 12:20:19,122.19872161034459
2024-05-23 12:20:19,114.24620128396242
2024-05-23 12:20:19,108.3462931475366
2024-05-23 12:20:19,104.5180884542231
2024-05-23 12:20:19,101.3337724662459
2024-05-23 12:20:19,96.74398730233645
2024-05-23 12:20:19,89.02117414872625
2024-05-23 12:20:19,77.59487855944438
2024-05-23 12:20:19,63.1306018496483
2024-05-23 12:20:19,46.81798775619069
2024-05-23 12:20:19,29.976656844998693
2024-05-23 12:20:19,14.464207059164885
2024-05-23 12:20:19,2.6849632889066397
2024-05-23 12:20:19,-3.7423507832753886
2024-05-23 12:20:19,-5.439669578339793
2024-05-23 12:20:19,-4.906113283581998
2024-05-23 12:20:19,-4.448752820738011
2024-05-23 12:20:19,-4.623846952058496
2024-05-23 12:20:19,-4.727861748075447
2024-05-23 12:20:19,-4.352267288058297
2024-05-23 12:20:19,-3.983706624930254
2024-05-23 12:20:19,-4.181671434155264
2024-05-23 12:20:19,-4.727096209580852
2024-05-23 12:20:19,-4.933027674416274
2024-05-23 12:20:19,-4.581875209156885
2024-05-23 12:20:19,-4.173153809848322
2024-05-23 12:20:19,-4.215847017101268
2024-05-23 12:20:19,-4.580037097622913
2024-05-23 12:20:19,-4.7456924231308735
2024-05-23 12:20:19,-4.520295123238086
2024-05-23 12:20:19,-4.244488218615542
2024-05-23 12:20:19,-4.282918785535929
2024-05-23 12:20:19,-4.545479382114567
2024-05-23 12:20:19,-4.659630370657211
2024-05-23 12:20:19,-4.489203608837499
2024-05-23 12:20:19,-4.2838033902399815
2024-05-23 12:20:19,-4.310440748386897
2024-05-23 12:20:19,-4.502667242674042
2024-05-23 12:20:19,-4.5873676628427456
2024-05-23 12:20:19,-4.463263389229235
2024-05-23 12:20:19,-4.312509914557561
2024-05-23 12:20:19,-4.330415527161846
2024-05-23 12:20:19,-4.469356003905979
2024-05-23 12:20:19,-4.530052331291835
2024-05-23 12:20:19,-4.438435991787883
2024-05-23 12:20:19,-4.326646086770513
2024-05-23 12:20:19,-4.338039309802016
2024-05-23 12:20:19,-4.438487708652544
2024-05-23 12:20:19,-4.482232897236905
2024-05-23 12:20:19,-4.413701045538518
2024-05-23 12:20:19,-4.329027843503938
2024-05-23 12:20:19,-4.33487258032996
2024-05-23 12:20:19,-4.407381424112808
2024-05-23 12:20:19,-4.439620243145963
2024-05-23 12:20:19,-4.390211110094161
2024-05-23 12:20:19,-4.329035453034784
2024-05-23 12:20:19,-4.332750841250487
2024-05-23 12:20:19,-4.3845039448081655
2024-05-23 12:20:19,-4.406971607084601
2024-05-23 12:20:19,-4.369731168915639
2024-05-23 12:20:19,-4.3238394702510545
2024-05-23 12:20:19,-4.325651432470445
2024-05-23 12:20:19,-4.362819654383127
2024-05-23 12:20:19,-4.378842219791539
2024-05-23 12:20:19,-4.3513254212897365
2024-05-23 12:20:19,-4.316532210157332
2024-05-23 12:20:19,-4.316566310248236
2024-05-23 12:20:19,-4.342804519047725
2024-05-23 12:20:19,-4.353482532861472
2024-05-23 12:20:19,-4.332330217340406
2024-05-23 12:20:19,-4.306128873304355
2024-05-23 12:20:19,-4.3056014628282835
2024-05-23 12:20:19,-4.324261189014714
2024-05-23 12:20:19,-4.331797965846285
2024-05-23 12:20:19,-4.31566104254448
2024-05-23 12:20:19,-4.295167106046085
2024-05-23 12:20:19,-4.293332560436319
2024-05-23 12:20:19,-4.306077897599926
2024-05-23 12:20:19,-4.311106477430988
2024-05-23 12:20:19,-4.298906504728876
2024-05-23 12:20:19,-4.2833094892924
2024-05-23 12:20:19,-4.281543269790623
2024-05-23 12:20:19,-4.290296822231216
2024-05-23 12:20:19,-4.293397593880443
2024-05-23 12:20:19,-4.284088711461303
2024-05-23 12:20:19,-4.272048321667895
2024-05-23 12:20:19,-4.269573097591091
2024-05-23 12:20:19,-4.274484940197915
2024-05-23 12:20:19,-4.27592299239267
2024-05-23 12:20:19,-4.268367492127112
2024-05-23 12:20:19,-4.258735802324303
2024-05-23 12:20:19,-4.251857321993798
2024-05-23 12:20:19,-4.196085416921332
2024-05-23 12:20:19,-3.834586679132327
2024-05-23 12:20:19,-2.52283953768192
2024-05-23 12:20:19,0.6535381412714134
2024-05-23 12:20:19,6.284978508879554
2024-05-23 12:20:19,14.154563973706313
2024-05-23 12:20:19,23.569499559688282
2024-05-23 12:20:19,34.13258176112817
2024-05-23 12:20:19,45.78512572381441
2024-05-23 12:20:19,57.966541711262934
2024-05-23 12:20:19,69.18682402345227
2024-05-23 12:20:19,77.96028688812389
2024-05-23 12:20:19,84.19039531982475
2024-05-23 12:20:19,89.25903034075829
2024-05-23 12:20:19,94.60029663220452
2024-05-23 12:20:19,100.44053647072495
2024-05-23 12:20:19,106.06188861283748
2024-05-23 12:20:19,110.95653574200719
2024-05-23 12:20:19,115.30187366807672
2024-05-23 12:20:19,119.34778868586815
2024-05-23 12:20:19,122.80195030232755
2024-05-23 12:20:19,125.2201205863137
2024-05-23 12:20:19,127.01424196405875
2024-05-23 12:20:19,129.71017768818388
2024-05-23 12:20:19,134.78677614820086
2024-05-23 12:20:19,142.0946539102847
2024-05-23 12:20:19,149.52320850517398
2024-05-23 12:20:19,154.44386387665776
2024-05-23 12:20:19,155.71864110409862
2024-05-23 12:20:19,154.58717430104983
2024-05-23 12:20:19,153.81044570025009
2024-05-23 12:20:19,155.84157560642086
2024-05-23 12:20:19,161.39240289836033
2024-05-23 12:20:19,169.27397272042393
2024-05-23 12:20:19,177.41325403302267
2024-05-23 12:20:19,184.23932990542878
2024-05-23 12:20:19,189.44788391153844
2024-05-23 12:20:19,193.63664717998745
2024-05-23 12:20:19,197.3341175096295
2024-05-23 12:20:19,200.52243861413368
2024-05-23 12:20:19,203.0178685542145
2024-05-23 12:20:19,204.97786078465126
2024-05-23 12:20:19,206.84182697828595
2024-05-23 12:20:19,208.9604237784179
2024-05-23 12:20:19,211.48003088215202
2024-05-23 12:20:19,214.34438651889243
2024-05-23 12:20:19,217.08025510203194
2024-05-23 12:20:19,218.8003367579103
2024-05-23 12:20:19,218.86511652627757
2024-05-23 12:20:19,217.645812852346
2024-05-23 12:20:19,216.4886227724113
2024-05-23 12:20:19,216.75818405412792
2024-05-23 12:20:19,218.76771499130282
2024-05-23 12:20:19,221.53504511491354
2024-05-23 12:20:19,223.49947464519937
2024-05-23 12:20:19,223.4258800884953
2024-05-23 12:20:19,220.83774068874172
2024-05-23 12:20:19,216.09200677276098
2024-05-23 12:20:19,210.3088940429529
2024-05-23 12:20:20,205.04762438983343
2024-05-23 12:20:20,201.73762091549767
2024-05-23 12:20:20,201.1390269487893
2024-05-23 12:20:20,203.10353999625832
2024-05-23 12:20:20,206.75714316219964
2024-05-23 12:20:20,211.0645925187473
2024-05-23 12:20:20,215.3892601977948
2024-05-23 12:20:20,219.53062347405717
2024-05-23 12:20:20,223.2775401501227
2024-05-23 12:20:20,226.15558650294105
2024-05-23 12:20:20,227.7910404994657
2024-05-23 12:20:20,228.40627829620985
2024-05-23 12:20:20,228.6901606469454
2024-05-23 12:20:20,229.13451154972037
2024-05-23 12:20:20,229.65242923689038
2024-05-23 12:20:20,229.91455548514506
2024-05-23 12:20:20,229.90298353215059
2024-05-23 12:20:20,229.94685125320416
2024-05-23 12:20:20,230.26137240887238
2024-05-23 12:20:20,230.66259257614283
2024-05-23 12:20:20,230.8309266286845
2024-05-23 12:20:20,230.73510374798988
2024-05-23 12:20:20,230.64047015159082
2024-05-23 12:20:20,230.73841869619824
2024-05-23 12:20:20,230.91338951508615
2024-05-23 12:20:20,230.93129193922596
2024-05-23 12:20:20,230.76017969689818
2024-05-23 12:20:20,230.59202665046544
2024-05-23 12:20:20,230.56614777177626
2024-05-23 12:20:20,230.58025883186582
2024-05-23 12:20:20,230.4350232405308
2024-05-23 12:20:20,230.1269005398241
2024-05-23 12:20:20,229.86677142055962
2024-05-23 12:20:20,229.84584244040852
2024-05-23 12:20:20,230.04235239700967
2024-05-23 12:20:20,230.28949908467186
2024-05-23 12:20:20,230.47258502911131
2024-05-23 12:20:20,230.60078836953792
2024-05-23 12:20:20,230.7144659765539
2024-05-23 12:20:20,230.79885733459068
2024-05-23 12:20:20,230.8137257941628
2024-05-23 12:20:20,230.7705948003701
2024-05-23 12:20:20,230.73173754312072
2024-05-23 12:20:20,230.7282450485285
2024-05-23 12:20:20,230.72599073076557
2024-05-23 12:20:20,230.67768564404318
2024-05-23 12:20:20,230.59120915344946
2024-05-23 12:20:20,230.5162738693338
2024-05-23 12:20:20,230.47677000661997
2024-05-23 12:20:20,230.44844517611784
2024-05-23 12:20:20,230.40713631909557
2024-05-23 12:20:20,230.3816340252359
2024-05-23 12:20:20,230.43351758339188
2024-05-23 12:20:20,230.5824941265383
2024-05-23 12:20:20,230.77108186389253
2024-05-23 12:20:20,230.91430944192263
2024-05-23 12:20:20,230.97273249125945
2024-05-23 12:20:20,230.96480725333384
2024-05-23 12:20:20,230.92481115958716
2024-05-23 12:20:20,230.8764852225496
2024-05-23 12:20:20,230.8386003962939
2024-05-23 12:20:20,230.83109368264323
2024-05-23 12:20:20,230.8575434104225
2024-05-23 12:20:20,230.89104739323383
2024-05-23 12:20:20,230.88891195880203
2024-05-23 12:20:20,230.8255093265484
2024-05-23 12:20:20,230.71534487995484
2024-05-23 12:20:20,230.60262022293625
2024-05-23 12:20:20,230.52517071037582
2024-05-23 12:20:20,230.48996860823252
2024-05-23 12:20:20,230.4789093360902
2024-05-23 12:20:20,230.47450891190138
2024-05-23 12:20:20,230.4699218141414
2024-05-23 12:20:20,230.4512137641734
2024-05-23 12:20:20,230.3807210845634
2024-05-23 12:20:20,230.2210407487563
2024-05-23 12:20:20,229.9921714354662
2024-05-23 12:20:20,229.7827998674469
2024-05-23 12:20:20,229.68537154914722
2024-05-23 12:20:20,229.72175013443393
2024-05-23 12:20:20,229.83297120453827
2024-05-23 12:20:20,229.93083850293667
2024-05-23 12:20:20,229.90068993147779
2024-05-23 12:20:20,229.49245262863127
2024-05-23 12:20:20,228.29154377325918
2024-05-23 12:20:20,226.03400436827013
2024-05-23 12:20:20,223.03711514962507
2024-05-23 12:20:20,220.0801557147902
2024-05-23 12:20:20,217.65727146045458
2024-05-23 12:20:20,215.49532732138908
2024-05-23 12:20:20,213.0341749869862
2024-05-23 12:20:20,210.29221117062693
2024-05-23 12:20:20,207.947522991612
2024-05-23 12:20:20,206.51290363803756
2024-05-23 12:20:20,205.69640033802716
2024-05-23 12:20:20,204.76935306392767
2024-05-23 12:20:20,203.44822632143874
2024-05-23 12:20:20,202.15837622362295
2024-05-23 12:20:20,201.39070720618628
2024-05-23 12:20:20,201.01834613934807
2024-05-23 12:20:20,200.41249367144124
2024-05-23 12:20:20,199.1293673566846
2024-05-23 12:20:20,197.25887839144434
2024-05-23 12:20:20,195.0941636214366
2024-05-23 12:20:20,192.67848633411688
2024-05-23 12:20:20,189.84965518032533
2024-05-23 12:20:20,186.70163175674787
2024-05-23 12:20:20,183.7892136371586
2024-05-23 12:20:20,181.71344587072906
2024-05-23 12:20:20,180.64191482846053
2024-05-23 12:20:20,180.39158242568908
2024-05-23 12:20:20,180.8295139830737
2024-05-23 12:20:20,182.1326785693462
2024-05-23 12:20:20,184.74276943451383
2024-05-23 12:20:20,188.70369595242883
2024-05-23 12:20:20,192.68059206857555
2024-05-23 12:20:20,194.1841639190507
2024-05-23 12:20:20,191.55418958423135
2024-05-23 12:20:20,185.70424254711284
2024-05-23 12:20:20,179.42221411902898
2024-05-23 12:20:20,174.87764906370916
2024-05-23 12:20:20,172.12216355644776
2024-05-23 12:20:20,169.98293479743526
2024-05-23 12:20:20,167.88754855500602
2024-05-23 12:20:20,166.4793505116222
2024-05-23 12:20:20,166.70877673310758
2024-05-23 12:20:20,168.79725126234084
2024-05-23 12:20:20,172.17698386818827
2024-05-23 12:20:20,176.07362900569714
2024-05-23 12:20:20,179.7919590507212
2024-05-23 12:20:20,182.598049858303
2024-05-23 12:20:20,183.87366249253657
2024-05-23 12:20:20,183.63283959599516
2024-05-23 12:20:20,182.587994693681
2024-05-23 12:20:20,181.386547679517
2024-05-23 12:20:20,179.87105127324145
2024-05-23 12:20:20,177.3313505216359
2024-05-23 12:20:20,173.4553861671202
2024-05-23 12:20:20,168.84375287117427
2024-05-23 12:20:20,164.54573952521807
2024-05-23 12:20:20,161.22357512201083
2024-05-23 12:20:20,158.89885458886872
2024-05-23 12:20:20,157.44356524694604
2024-05-23 12:20:20,157.08690317190096
2024-05-23 12:20:20,158.2719203305242
2024-05-23 12:20:20,161.03945208521841
2024-05-23 12:20:20,164.68072343030312
2024-05-23 12:20:20,168.0463007314908
2024-05-23 12:20:20,170.19141743573613
2024-05-23 12:20:20,170.7839801436086
2024-05-23 12:20:20,170.04496004360772
2024-05-23 12:20:20,168.44237502703464
2024-05-23 12:20:20,166.4564714816131
2024-05-23 12:20:20,164.4886868199938
2024-05-23 12:20:20,162.81366573699987
2024-05-23 12:20:20,161.54074767333407
2024-05-23 12:20:20,160.6071363235657
2024-05-23 12:20:20,159.7554896375127
2024-05-23 12:20:20,158.53911343414896
2024-05-23 12:20:20,156.47412096798925
2024-05-23 12:20:20,153.2899809885055
2024-05-23 12:20:20,149.1041198310556
2024-05-23 12:20:20,144.46573851716948
2024-05-23 12:20:20,140.30908862274305
2024-05-23 12:20:20,137.72637585829247
2024-05-23 12:20:20,137.46436476869712
2024-05-23 12:20:20,139.3878393049915
2024-05-23 12:20:20,142.4164874861093
2024-05-23 12:20:20,145.1527642651196
2024-05-23 12:20:20,146.77849671332626
2024-05-23 12:20:20,147.45365340005793
2024-05-23 12:20:20,147.87145160347066
2024-05-23 12:20:20,148.45274562707155
2024-05-23 12:20:20,149.0372378691064
2024-05-23 12:20:20,149.35618123172006
2024-05-23 12:20:20,149.69897828667152
2024-05-23 12:20:20,151.01750734531768
2024-05-23 12:20:20,154.22311621160355
2024-05-23 12:20:20,159.09995777230245
2024-05-23 12:20:20,163.82805424973927
2024-05-23 12:20:20,165.88968880233418
2024-05-23 12:20:20,163.80912215354851
2024-05-23 12:20:20,158.1498402692483
2024-05-23 12:20:20,150.92538746115554
2024-05-23 12:20:20,144.16603339021106
2024-05-23 12:20:20,138.9466268182627
2024-05-23 12:20:20,135.40622893731324
2024-05-23 12:20:20,133.3280599346872
2024-05-23 12:20:20,132.6328084137524
2024-05-23 12:20:20,133.4543492352605
2024-05-23 12:20:20,135.82188824287886
2024-05-23 12:20:20,139.23076701339997
2024-05-23 12:20:20,142.49411879625993
2024-05-23 12:20:20,144.12055004777042
2024-05-23 12:20:20,143.06051586371618
2024-05-23 12:20:20,139.3434219888046
2024-05-23 12:20:20,134.18476164486776
2024-05-23 12:20:20,129.44785139236726
2024-05-23 12:20:20,126.75214702248968
2024-05-23 12:20:20,126.78750312653258
2024-05-23 12:20:20,129.18446886169946
2024-05-23 12:20:20,132.87556488545624
2024-05-23 12:20:20,136.70212815724585
2024-05-23 12:20:20,139.95919346449054
2024-05-23 12:20:20,142.49524203956165
2024-05-23 12:20:20,144.32642150597277
2024-05-23 12:20:20,145.3332988234319
2024-05-23 12:20:20,145.4672792842736
2024-05-23 12:20:20,145.08452316286497
2024-05-23 12:20:20,144.83604507558337
2024-05-23 12:20:20,145.17524751207995
2024-05-23 12:20:20,145.9744267732029
2024-05-23 12:20:20,146.56291849347824
2024-05-23 12:20:20,146.1584719749774
2024-05-23 12:20:20,144.38936113127141
2024-05-23 12:20:20,141.5323810227111
2024-05-23 12:20:20,138.30025272108267
2024-05-23 12:20:20,135.3769121207117
2024-05-23 12:20:20,133.11050896075224
2024-05-23 12:20:20,131.5218252224241
2024-05-23 12:20:20,130.35831977932057
2024-05-23 12:20:20,129.03471314313677
2024-05-23 12:20:20,126.81849920225068
2024-05-23 12:20:20,123.46920459979401
2024-05-23 12:20:20,119.7529078718196
2024-05-23 12:20:20,117.21296416786757
2024-05-23 12:20:20,117.47504514871014
2024-05-23 12:20:20,121.61548140553981
2024-05-23 12:20:20,129.5054972259617
2024-05-23 12:20:20,139.13280656265837
2024-05-23 12:20:20,146.79514428558988
2024-05-23 12:20:20,148.78751432705735
2024-05-23 12:20:20,143.6078814397576
2024-05-23 12:20:20,133.0009580755332
2024-05-23 12:20:20,121.14627409801315
2024-05-23 12:20:20,112.56836262540635
2024-05-23 12:20:20,109.90668378109824
2024-05-23 12:20:20,112.70770446544702
2024-05-23 12:20:20,118.00795627232942
2024-05-23 12:20:20,122.39443217521439
2024-05-23 12:20:20,124.05389661811483
2024-05-23 12:20:20,123.35842086573348
2024-05-23 12:20:20,121.86994577120522
2024-05-23 12:20:20,120.92575611709286
2024-05-23 12:20:20,120.88779776115878
2024-05-23 12:20:20,121.16859262504273
2024-05-23 12:20:21,120.68400914637087
2024-05-23 12:20:21,118.50655866801425
2024-05-23 12:20:21,114.4667962730459
2024-05-23 12:20:21,109.37184634007546
2024-05-23 12:20:21,104.76185482175268
2024-05-23 12:20:21,102.35782568378889
2024-05-23 12:20:21,103.31939373569323
2024-05-23 12:20:21,107.59020000343196
2024-05-23 12:20:21,113.78514639344513
2024-05-23 12:20:21,119.73913945206677
2024-05-23 12:20:21,123.33446253104557
2024-05-23 12:20:21,123.25549991792664
2024-05-23 12:20:21,119.5439770889977
2024-05-23 12:20:21,113.72214971352321
2024-05-23 12:20:21,108.20910290920467
2024-05-23 12:20:21,105.16777151931426
2024-05-23 12:20:21,105.37197794690657
2024-05-23 12:20:21,107.82983629692608
2024-05-23 12:20:21,110.53380803399135
2024-05-23 12:20:21,111.85340738298605
2024-05-23 12:20:21,111.46516584070427
2024-05-23 12:20:21,110.13556293194081
2024-05-23 12:20:21,108.76481890513435
2024-05-23 12:20:21,107.65730566312531
2024-05-23 12:20:21,106.53630625397481
2024-05-23 12:20:21,105.12438459083728
2024-05-23 12:20:21,103.71804228725864
2024-05-23 12:20:21,103.19451620651361
2024-05-23 12:20:21,104.35551164650673
2024-05-23 12:20:21,107.21826378498763
2024-05-23 12:20:21,111.00114626870096
2024-05-23 12:20:21,114.73609286946107
2024-05-23 12:20:21,117.67431292534275
2024-05-23 12:20:21,119.09995887407842
2024-05-23 12:20:21,118.17958511476755
2024-05-23 12:20:21,114.43569150730156
2024-05-23 12:20:21,108.4267165401291
2024-05-23 12:20:21,101.8602699941504
2024-05-23 12:20:21,96.93747869310398
2024-05-23 12:20:21,95.29164844590318
2024-05-23 12:20:21,97.08987106247292
2024-05-23 12:20:21,100.83757214456341
2024-05-23 12:20:21,104.16650670932665
2024-05-23 12:20:21,105.27665068702507
2024-05-23 12:20:21,104.08614336111052
2024-05-23 12:20:21,102.18414533268607
2024-05-23 12:20:21,101.57763120032477
2024-05-23 12:20:21,103.24187801848997
2024-05-23 12:20:21,106.54642241350501
2024-05-23 12:20:21,109.78783193206361
2024-05-23 12:20:21,111.35061932388821
2024-05-23 12:20:21,110.7589688266215
2024-05-23 12:20:21,108.8905277800903
2024-05-23 12:20:21,107.11303278484112
2024-05-23 12:20:21,106.08054870359732
2024-05-23 12:20:21,105.36871594072751
2024-05-23 12:20:21,104.26019532154581
2024-05-23 12:20:21,102.76306978799185
2024-05-23 12:20:21,101.76702255937596
2024-05-23 12:20:21,102.22270242031045
2024-05-23 12:20:21,104.2410368371049
2024-05-23 12:20:21,107.03180034430014
2024-05-23 12:20:21,109.67999871822957
2024-05-23 12:20:21,111.8719568599418
2024-05-23 12:20:21,113.80092084021992
2024-05-23 12:20:21,115.56371972991663
2024-05-23 12:20:21,116.97234120621614
2024-05-23 12:20:21,118.000280253601
2024-05-23 12:20:21,119.16301723588039
2024-05-23 12:20:21,121.23334183426931
2024-05-23 12:20:21,124.5034635392806
2024-05-23 12:20:21,128.33832151404246
2024-05-23 12:20:21,131.52718476020735
2024-05-23 12:20:21,133.1443043533519
2024-05-23 12:20:21,133.17290962333496
2024-05-23 12:20:21,132.45332822744234
2024-05-23 12:20:21,132.03715800262142
2024-05-23 12:20:21,132.35772878694075
2024-05-23 12:20:21,132.8435444946635
2024-05-23 12:20:21,132.38898485184785
2024-05-23 12:20:21,130.3041376508342
2024-05-23 12:20:21,126.87088730150319
2024-05-23 12:20:21,123.12739888297041
2024-05-23 12:20:21,120.3035065437095
2024-05-23 12:20:21,119.43515259850558
2024-05-23 12:20:21,121.16902408314662
2024-05-23 12:20:21,125.48990637167114
2024-05-23 12:20:21,131.52939361631283
2024-05-23 12:20:21,137.94773697800096
2024-05-23 12:20:21,143.78824359272514
2024-05-23 12:20:21,149.00612672221345
2024-05-23 12:20:21,154.12966633011416
2024-05-23 12:20:21,159.42490375749034
2024-05-23 12:20:21,164.32540205269083
2024-05-23 12:20:21,167.49087728209628
2024-05-23 12:20:21,167.41657619559803
2024-05-23 12:20:21,163.34636510374068
2024-05-23 12:20:21,156.06687340308008
2024-05-23 12:20:21,148.02455359742302
2024-05-23 12:20:21,142.45258903649125
2024-05-23 12:20:21,141.78677495672542
2024-05-23 12:20:21,146.28388528253873
2024-05-23 12:20:21,153.88871724260554
2024-05-23 12:20:21,161.5052103539277
2024-05-23 12:20:21,166.68874992487542
2024-05-23 12:20:21,168.65981373379796
2024-05-23 12:20:21,168.22585258446014
2024-05-23 12:20:21,166.9046942470819
2024-05-23 12:20:21,165.9880845652511
2024-05-23 12:20:21,166.19368987182045
2024-05-23 12:20:21,167.84897617738974
2024-05-23 12:20:21,171.1021150166916
2024-05-23 12:20:21,175.92876387765742
2024-05-23 12:20:21,182.07757569574352
2024-05-23 12:20:21,189.06068921086225
2024-05-23 12:20:21,196.14995478295228
2024-05-23 12:20:21,202.43951749055745
2024-05-23 12:20:21,207.18149045631273
2024-05-23 12:20:21,210.288319910204
2024-05-23 12:20:21,212.39670350671128
2024-05-23 12:20:21,214.21972178535788
2024-05-23 12:20:21,215.8625577156701
2024-05-23 12:20:21,216.9615237326901
2024-05-23 12:20:21,217.5175435712135
2024-05-23 12:20:21,218.34829440449187
2024-05-23 12:20:21,220.42965273051817
2024-05-23 12:20:21,223.76030169542764
2024-05-23 12:20:21,227.14197392656902
2024-05-23 12:20:21,229.2734118321954
2024-05-23 12:20:21,229.93610138975538
2024-05-23 12:20:21,229.94869817560436
2024-05-23 12:20:21,230.09053548419791
2024-05-23 12:20:21,230.3677627908899
2024-05-23 12:20:21,230.37755205181637
2024-05-23 12:20:21,230.06740957275778
2024-05-23 12:20:21,229.84657629992893
2024-05-23 12:20:21,230.01425472861249
2024-05-23 12:20:21,230.36448570849697
2024-05-23 12:20:21,230.49176763737142
2024-05-23 12:20:21,230.32387263226184
2024-05-23 12:20:21,230.17078993773825
2024-05-23 12:20:21,230.27740382661452
2024-05-23 12:20:21,230.51963261036278
2024-05-23 12:20:21,230.62076142273406
2024-05-23 12:20:21,230.5321955533076
2024-05-23 12:20:21,230.4578582349025
2024-05-23 12:20:21,230.53592963802595
2024-05-23 12:20:21,230.64084835635387
2024-05-23 12:20:21,230.5608178813228
2024-05-23 12:20:21,230.2762060002525
2024-05-23 12:20:21,229.97870104234923
2024-05-23 12:20:21,229.8294646482534
2024-05-23 12:20:21,229.77697457368666
2024-05-23 12:20:21,229.6198796326453
2024-05-23 12:20:21,229.19960790112484
2024-05-23 12:20:21,228.53493711092605
2024-05-23 12:20:21,227.8095844518936
2024-05-23 12:20:21,227.25149651092104
2024-05-23 12:20:21,227.01567978731455
2024-05-23 12:20:21,227.13496419392413
2024-05-23 12:20:21,227.52032819840701
2024-05-23 12:20:21,227.9811741671151
2024-05-23 12:20:21,228.24460182681435
2024-05-23 12:20:21,227.96566927577985
2024-05-23 12:20:21,226.81520949902202
2024-05-23 12:20:21,224.74163243401313
2024-05-23 12:20:21,222.21758125992255
2024-05-23 12:20:21,220.13413251052364
2024-05-23 12:20:21,219.35114337818544
2024-05-23 12:20:21,220.24269842378297
2024-05-23 12:20:21,222.5141615805784
2024-05-23 12:20:21,225.33961146184387
2024-05-23 12:20:21,227.75471136532227
2024-05-23 12:20:21,229.07611236292686
2024-05-23 12:20:21,229.05002980401483
2024-05-23 12:20:21,227.74748611521395
2024-05-23 12:20:21,225.480663906963
2024-05-23 12:20:21,222.73858220840424
2024-05-23 12:20:21,219.93852205048722
2024-05-23 12:20:21,217.20775372630004
2024-05-23 12:20:21,214.5853511032001
2024-05-23 12:20:21,212.39904204098931
2024-05-23 12:20:21,211.20910330323076
2024-05-23 12:20:21,211.26631399006052
2024-05-23 12:20:21,212.0840664823303
2024-05-23 12:20:21,212.69012101838405
2024-05-23 12:20:21,212.38817316343614
2024-05-23 12:20:21,211.2347496134303
2024-05-23 12:20:21,209.75025584349615
2024-05-23 12:20:21,208.32062073212413
2024-05-23 12:20:21,207.0351073110761
2024-05-23 12:20:21,205.9360244106493
2024-05-23 12:20:21,205.03601948440553
2024-05-23 12:20:21,203.9410427103492
2024-05-23 12:20:21,201.76985079846938
2024-05-23 12:20:21,197.90740499978483
2024-05-23 12:20:21,192.97464097534566
2024-05-23 12:20:21,188.77688872761738
2024-05-23 12:20:21,186.8941874979059
2024-05-23 12:20:21,187.13977314489497
2024-05-23 12:20:21,187.54956025127828
2024-05-23 12:20:21,186.0806343680759
2024-05-23 12:20:21,182.37362185756896
2024-05-23 12:20:21,177.97378360422275
2024-05-23 12:20:21,175.10451654908533
2024-05-23 12:20:21,175.22322410378808
2024-05-23 12:20:21,178.27032920506917
2024-05-23 12:20:21,182.73899220607348
2024-05-23 12:20:21,186.36921206989598
2024-05-23 12:20:21,187.20278090082041
2024-05-23 12:20:21,184.50023890654273
2024-05-23 12:20:21,178.94071571187433
2024-05-23 12:20:21,172.06095610725058
2024-05-23 12:20:21,165.49935269059668
2024-05-23 12:20:21,160.5521551799505
2024-05-23 12:20:21,158.02048742709889
2024-05-23 12:20:21,158.0838088264552
2024-05-23 12:20:21,160.1492826614878
2024-05-23 12:20:21,162.9022604270207
2024-05-23 12:20:21,164.8804384864675
2024-05-23 12:20:21,165.48993941883802
2024-05-23 12:20:21,165.5056413947031
2024-05-23 12:20:21,166.19082136934972
2024-05-23 12:20:21,167.75893037711845
2024-05-23 12:20:21,168.84826467039613
2024-05-23 12:20:21,167.56189623688542
2024-05-23 12:20:21,163.05620356325193
2024-05-23 12:20:21,156.35263492074878
2024-05-23 12:20:21,149.8133964160179
2024-05-23 12:20:21,145.64446093250277
2024-05-23 12:20:21,144.49584962419726
2024-05-23 12:20:21,145.190768649447
2024-05-23 12:20:21,145.7281373385477
2024-05-23 12:20:21,144.63983516757105
2024-05-23 12:20:21,141.6683673685379
2024-05-23 12:20:21,137.55436622532793
2024-05-23 12:20:21,133.4084054203472
2024-05-23 12:20:21,130.10739007739107
2024-05-23 12:20:21,127.89328934749355
2024-05-23 12:20:21,126.31812472521347
2024-05-23 12:20:21,124.63856351165398
2024-05-23 12:20:21,122.4358880841054
2024-05-23 12:20:21,119.940496557243
2024-05-23 12:20:21,117.77517403011261
2024-05-23 12:20:21,116.41157548343207
2024-05-23 12:20:21,115.85887757138862
2024-05-23 12:20:21,115.75135677617378
2024-05-23 12:20:21,115.67194782551802
2024-05-23 12:20:21,115.45744659656273
2024-05-23 12:20:21,115.22455274148845
2024-05-23 12:20:21,115.05987606645995
2024-05-23 12:20:21,114.71290933121782
2024-05-23 12:20:21,113.71884659624878
2024-05-23 12:20:21,111.90681446073981
2024-05-23 12:20:22,109.73022281318619
2024-05-23 12:20:22,108.00800198057222
2024-05-23 12:20:22,107.27768113051157
2024-05-23 12:20:22,107.37931088030571
2024-05-23 12:20:22,107.66612662583331
2024-05-23 12:20:22,107.64512134579661
2024-05-23 12:20:22,107.48401732624674
2024-05-23 12:20:22,107.91496549171599
2024-05-23 12:20:22,109.54233159647444
2024-05-23 12:20:22,112.10595535689893
2024-05-23 12:20:22,114.45799118365731
2024-05-23 12:20:22,115.5512177100489
2024-05-23 12:20:22,115.6110175678553
2024-05-23 12:20:22,116.04457969845647
2024-05-23 12:20:22,117.85302082488083
2024-05-23 12:20:22,120.21998212894148
2024-05-23 12:20:22,120.87638782248311
2024-05-23 12:20:22,117.902199949389
2024-05-23 12:20:22,111.36838580478376
2024-05-23 12:20:22,103.56625297970609
2024-05-23 12:20:22,97.61842309467849
2024-05-23 12:20:22,95.35219769707167
2024-05-23 12:20:22,95.99235465152793
2024-05-23 12:20:22,96.83956601558413
2024-05-23 12:20:22,95.4586473280624
2024-05-23 12:20:22,91.48108799505765
2024-05-23 12:20:22,86.62516795799529
2024-05-23 12:20:22,83.23394384603658
2024-05-23 12:20:22,82.6563522728006
2024-05-23 12:20:22,84.54521632812542
2024-05-23 12:20:22,87.26136721936055
2024-05-23 12:20:22,88.90688258472582
2024-05-23 12:20:22,88.29881281992796
2024-05-23 12:20:22,85.51766579813876
2024-05-23 12:20:22,81.9518722918747
2024-05-23 12:20:22,79.70594247775884
2024-05-23 12:20:22,80.44505515245645
2024-05-23 12:20:22,84.36738128622171
2024-05-23 12:20:22,90.12489083604028
2024-05-23 12:20:22,95.71186418587209
2024-05-23 12:20:22,99.57260854476905
2024-05-23 12:20:22,101.22553136375498
2024-05-23 12:20:22,101.16492203966573
2024-05-23 12:20:22,100.28437917667975
2024-05-23 12:20:22,99.2617042534103
2024-05-23 12:20:22,98.12408003419853
2024-05-23 12:20:22,96.1003536432726
2024-05-23 12:20:22,92.0526803858917
2024-05-23 12:20:22,85.49088479727716
2024-05-23 12:20:22,77.30955570106673
2024-05-23 12:20:22,69.35571187778137
2024-05-23 12:20:22,63.16414400422465
2024-05-23 12:20:22,59.10118818407747
2024-05-23 12:20:22,56.678483461219635
2024-05-23 12:20:22,55.582133178441154
2024-05-23 12:20:22,56.262397597117925
2024-05-23 12:20:22,59.38422847001263
2024-05-23 12:20:22,64.64576343115303
2024-05-23 12:20:22,70.28104172178391
2024-05-23 12:20:22,73.95597783113566
2024-05-23 12:20:22,74.34581456093187
2024-05-23 12:20:22,72.11302684888588
2024-05-23 12:20:22,69.55612398373749
2024-05-23 12:20:22,69.55612398373749
2024-05-23 12:20:22,69.19326406813754
2024-05-23 12:20:22,72.5272089991923
2024-05-23 12:20:22,79.81998408971427
2024-05-23 12:20:22,90.0101779974422
2024-05-23 12:20:22,100.37292225861856
2024-05-23 12:20:22,107.29045523673685
2024-05-23 12:20:22,108.21398075945461
2024-05-23 12:20:22,102.91179419090767
2024-05-23 12:20:22,93.27195846635256
2024-05-23 12:20:22,82.36395299617595
2024-05-23 12:20:22,73.13513248308116
2024-05-23 12:20:22,67.05000550168255
2024-05-23 12:20:22,63.57760319718027
2024-05-23 12:20:22,61.09882030647901
2024-05-23 12:20:22,58.5029775189932
2024-05-23 12:20:22,56.12229124392328
2024-05-23 12:20:22,55.37721508874019
2024-05-23 12:20:22,57.623686445465346
2024-05-23 12:20:22,63.10351804450009
2024-05-23 12:20:22,70.56564978630313
2024-05-23 12:20:22,77.74192826759977
2024-05-23 12:20:22,82.45541755728681
2024-05-23 12:20:22,83.66212316612425
2024-05-23 12:20:22,81.7535613657302
2024-05-23 12:20:22,78.06564379620787
2024-05-23 12:20:22,73.99424998964423
2024-05-23 12:20:22,70.24836036695758
2024-05-23 12:20:22,66.78505313498329
2024-05-23 12:20:22,63.4997621494483
2024-05-23 12:20:22,60.89363914960285
2024-05-23 12:20:22,59.909964963822574
2024-05-23 12:20:22,61.12957160481976
2024-05-23 12:20:22,64.2160021625321
2024-05-23 12:20:22,68.1406215106305
2024-05-23 12:20:22,71.93205766946461
2024-05-23 12:20:22,75.29011812533979
2024-05-23 12:20:22,78.54410288743476
2024-05-23 12:20:22,81.97016788556944
2024-05-23 12:20:22,85.07848549582648
2024-05-23 12:20:22,86.59651078007956
2024-05-23 12:20:22,85.31310333007734
2024-05-23 12:20:22,81.15520095291944
2024-05-23 12:20:22,75.58246741933006
2024-05-23 12:20:22,70.9075178797912
2024-05-23 12:20:22,69.01644205882214
2024-05-23 12:20:22,70.42254988008752
2024-05-23 12:20:22,74.30566049906962
2024-05-23 12:20:22,79.38190028409389
2024-05-23 12:20:22,84.77453283627428
2024-05-23 12:20:22,90.08579857608669
2024-05-23 12:20:22,94.65803652744873
2024-05-23 12:20:22,97.04350342039452
2024-05-23 12:20:22,95.72814790617744
2024-05-23 12:20:22,90.65924193727444
2024-05-23 12:20:22,83.87808106873806
2024-05-23 12:20:22,78.41605615468757
2024-05-23 12:20:22,76.32652658983538
2024-05-23 12:20:22,77.32951029596401
2024-05-23 12:20:22,79.03375249758838
2024-05-23 12:20:22,78.6549681868976
2024-05-23 12:20:22,75.03674422134317
2024-05-23 12:20:22,69.43293362029061
2024-05-23 12:20:22,64.46141776312322
2024-05-23 12:20:22,62.146229710232376
2024-05-23 12:20:22,62.62556698720377
2024-05-23 12:20:22,64.41216488503647
2024-05-23 12:20:22,65.7183666486741
2024-05-23 12:20:22,65.65354710767113
2024-05-23 12:20:22,64.54404390623749
2024-05-23 12:20:22,63.427966871292526
2024-05-23 12:20:22,63.226951872081926
2024-05-23 12:20:22,64.17077217755576
2024-05-23 12:20:22,65.83204694740633
2024-05-23 12:20:22,67.63021873624879
2024-05-23 12:20:22,69.24257830125956
2024-05-23 12:20:22,70.56585634325481
2024-05-23 12:20:22,71.4359054154172
2024-05-23 12:20:22,71.58001669007393
2024-05-23 12:20:22,70.95826224917788
2024-05-23 12:20:22,70.07230329820374
2024-05-23 12:20:22,69.73064931554585
2024-05-23 12:20:22,70.45152725075855
2024-05-23 12:20:22,72.1808900026325
2024-05-23 12:20:22,74.52887435067416
2024-05-23 12:20:22,77.0392601959566
2024-05-23 12:20:22,79.2160804120407
2024-05-23 12:20:22,80.58707163422281
2024-05-23 12:20:22,81.01573203865696
2024-05-23 12:20:22,80.99439249371103
2024-05-23 12:20:22,81.48573280101718
2024-05-23 12:20:22,83.2828475015728
2024-05-23 12:20:22,86.43139154094361
2024-05-23 12:20:22,90.24902710276487
2024-05-23 12:20:22,93.89065608815795
2024-05-23 12:20:22,96.84413610386001
2024-05-23 12:20:22,98.79280762884794
2024-05-23 12:20:22,99.07072952072281
2024-05-23 12:20:22,96.63797816818207
2024-05-23 12:20:22,90.99435397681707
2024-05-23 12:20:22,83.21721631536798
2024-05-23 12:20:22,75.89762787844944
2024-05-23 12:20:22,71.62938696840082
2024-05-23 12:20:22,71.1426282245022
2024-05-23 12:20:22,72.76079619462539
2024-05-23 12:20:22,73.733074175396
2024-05-23 12:20:22,72.31256384421468
2024-05-23 12:20:22,68.90807829583447
2024-05-23 12:20:22,65.48034580787879
2024-05-23 12:20:22,63.8180307508315
2024-05-23 12:20:22,64.23548531286191
2024-05-23 12:20:22,65.74219163347162
2024-05-23 12:20:22,67.27012364009803
2024-05-23 12:20:22,68.67982561177772
2024-05-23 12:20:22,70.75475981170968
2024-05-23 12:20:22,74.39904916402268
2024-05-23 12:20:22,79.78154173383402
2024-05-23 12:20:22,86.01899541873642
2024-05-23 12:20:22,91.45521038256955
2024-05-23 12:20:22,94.235449913886
2024-05-23 12:20:22,93.06388751886706
2024-05-23 12:20:22,88.15963054920793
2024-05-23 12:20:22,81.81807810610601
2024-05-23 12:20:22,77.5876089207052
2024-05-23 12:20:22,78.1181631179987
2024-05-23 12:20:22,83.21719556096038
2024-05-23 12:20:22,89.81848036903563
2024-05-23 12:20:22,94.06791869122506
2024-05-23 12:20:22,93.86186623100073
2024-05-23 12:20:22,89.79901281080973
2024-05-23 12:20:22,84.13162422171257
2024-05-23 12:20:22,79.05301099260416
2024-05-23 12:20:22,75.70646362582646
2024-05-23 12:20:22,74.19493185470364
2024-05-23 12:20:22,74.13545391567547
2024-05-23 12:20:22,75.20255243406491
2024-05-23 12:20:22,77.26126828211576
2024-05-23 12:20:22,80.01948459485696
2024-05-23 12:20:22,82.59549438913368
2024-05-23 12:20:22,83.59853360227952
2024-05-23 12:20:22,81.9541724007459
2024-05-23 12:20:22,77.9184825507087
2024-05-23 12:20:22,73.25468071176786
2024-05-23 12:20:22,70.20903096140378
2024-05-23 12:20:22,70.19579235958814
2024-05-23 12:20:22,73.26773676305977
2024-05-23 12:20:22,78.38799955224951
2024-05-23 12:20:22,83.94572230869208
2024-05-23 12:20:22,88.32286409563127
2024-05-23 12:20:22,90.43505338381108
2024-05-23 12:20:22,89.97061518963083
2024-05-23 12:20:22,87.25860182492244
2024-05-23 12:20:22,83.04489553311402
2024-05-23 12:20:22,78.39698950309972
2024-05-23 12:20:22,74.61639551742573
2024-05-23 12:20:22,72.82289648453683
2024-05-23 12:20:22,73.26424757133366
2024-05-23 12:20:22,75.03843462953495
2024-05-23 12:20:22,76.74719675942988
2024-05-23 12:20:22,77.55802071001827
2024-05-23 12:20:22,77.61539745337929
2024-05-23 12:20:22,77.4967852324387
2024-05-23 12:20:22,77.466586742894
2024-05-23 12:20:22,77.36160040474824
2024-05-23 12:20:22,77.09907218842274
2024-05-23 12:20:22,77.10416678402616
2024-05-23 12:20:22,78.13741573513597
2024-05-23 12:20:22,80.68349769164514
2024-05-23 12:20:22,84.46328534516229
2024-05-23 12:20:22,88.45494316557807
2024-05-23 12:20:22,91.38975546003196
2024-05-23 12:20:22,92.39261743610776
2024-05-23 12:20:22,91.38540192435588
2024-05-23 12:20:22,89.0554986520466
2024-05-23 12:20:22,86.50288834533428
2024-05-23 12:20:22,84.8030485120503
2024-05-23 12:20:22,84.62578680720705
2024-05-23 12:20:22,85.9948142656212
2024-05-23 12:20:22,88.30763987679138
2024-05-23 12:20:22,90.64462410325568
2024-05-23 12:20:22,92.19326775036961
2024-05-23 12:20:22,92.58077003887347
2024-05-23 12:20:22,91.9832462434254
2024-05-23 12:20:22,90.94856053120598
2024-05-23 12:20:22,90.04211509413244
2024-05-23 12:20:22,89.58477417036279
2024-05-23 12:20:22,89.64817221759567
2024-05-23 12:20:23,90.17576158015294
2024-05-23 12:20:23,91.05695313955783
2024-05-23 12:20:23,92.24785461704008
2024-05-23 12:20:23,93.92269236108541
2024-05-23 12:20:23,96.25516182832587
2024-05-23 12:20:23,98.79296906841238
2024-05-23 12:20:23,100.25339407662604
2024-05-23 12:20:23,99.37450065777112
2024-05-23 12:20:23,96.12707155816474
2024-05-23 12:20:23,91.97525333760983
2024-05-23 12:20:23,88.8858090438256
2024-05-23 12:20:23,88.05577452848651
2024-05-23 12:20:23,89.32212122096271
2024-05-23 12:20:23,91.39391836570846
2024-05-23 12:20:23,92.68664460726586
2024-05-23 12:20:23,92.41226945339774
2024-05-23 12:20:23,91.1459784841364
2024-05-23 12:20:23,90.24140416267335
2024-05-23 12:20:23,90.56863271818791
2024-05-23 12:20:23,91.81487632692242
2024-05-23 12:20:23,92.90226549120842
2024-05-23 12:20:23,92.874376240018
2024-05-23 12:20:23,91.40561507584425
2024-05-23 12:20:23,88.75701827714528
2024-05-23 12:20:23,85.50785961215776
2024-05-23 12:20:23,82.34682084908195
2024-05-23 12:20:23,79.95460164644544
2024-05-23 12:20:23,78.78449774893038
2024-05-23 12:20:23,78.59554371794069
2024-05-23 12:20:23,78.36780831517993
2024-05-23 12:20:23,77.74986379173744
2024-05-23 12:20:23,79.05222128080106
2024-05-23 12:20:23,86.56090091018703
2024-05-23 12:20:23,102.37832062313394
2024-05-23 12:20:23,123.11157913174031
2024-05-23 12:20:23,141.42131664238596
2024-05-23 12:20:23,150.86534655962885
2024-05-23 12:20:23,149.29417997902283
2024-05-23 12:20:23,138.60768670876618
2024-05-23 12:20:23,122.66397462587993
2024-05-23 12:20:23,105.6940496709358
2024-05-23 12:20:23,91.41341167461556
2024-05-23 12:20:23,82.01293385077679
2024-05-23 12:20:23,77.39979147388078
2024-05-23 12:20:23,75.84020063353294
2024-05-23 12:20:23,75.81879631324618
2024-05-23 12:20:23,77.3016698947467
2024-05-23 12:20:23,81.13050829029787
2024-05-23 12:20:23,87.43434948984329
2024-05-23 12:20:23,95.01141644773925
2024-05-23 12:20:23,102.39546862127621
2024-05-23 12:20:23,109.17596170940163
2024-05-23 12:20:23,115.70446941634296
2024-05-23 12:20:23,121.45934797617916
2024-05-23 12:20:23,124.34667989557101
2024-05-23 12:20:23,122.11773963824791
2024-05-23 12:20:23,114.42165448912306
2024-05-23 12:20:23,103.47341919674777
2024-05-23 12:20:23,93.03029461453542
2024-05-23 12:20:23,86.6409119914734
2024-05-23 12:20:23,86.02198448540506
2024-05-23 12:20:23,90.2489408902655
2024-05-23 12:20:23,96.32935625851512
2024-05-23 12:20:23,101.18535242190943
2024-05-23 12:20:23,103.66141197576528
2024-05-23 12:20:23,104.84159878425841
2024-05-23 12:20:23,106.52213198642373
2024-05-23 12:20:23,109.41449857226581
2024-05-23 12:20:23,112.625250073451
2024-05-23 12:20:23,114.50241675894127
2024-05-23 12:20:23,113.83265741418069
2024-05-23 12:20:23,110.51981683415555
2024-05-23 12:20:23,105.57200612175284
2024-05-23 12:20:23,100.64219524526644
2024-05-23 12:20:23,97.33633644145692
2024-05-23 12:20:23,96.51500317968069
2024-05-23 12:20:23,98.00225524425895
2024-05-23 12:20:23,100.93527551938898
2024-05-23 12:20:23,104.42602688281868
2024-05-23 12:20:23,107.98595736895223
2024-05-23 12:20:23,111.45390167805486
2024-05-23 12:20:23,114.60052374694847
2024-05-23 12:20:23,116.8177264940355
2024-05-23 12:20:23,117.26086949503045
2024-05-23 12:20:23,115.40499793929597
2024-05-23 12:20:23,111.53550684795934
2024-05-23 12:20:23,106.75702872892967
2024-05-23 12:20:23,102.56017750970267
2024-05-23 12:20:23,100.26108828757098
2024-05-23 12:20:23,100.5155938013597
2024-05-23 12:20:23,102.99068375651672
2024-05-23 12:20:23,106.38799588978684
2024-05-23 12:20:23,109.01169988509412
2024-05-23 12:20:23,109.71588674743474
2024-05-23 12:20:23,108.62031167373402
2024-05-23 12:20:23,107.0058249041667
2024-05-23 12:20:23,106.43457894290304
2024-05-23 12:20:23,107.77600707080224
2024-05-23 12:20:23,110.832190215519
2024-05-23 12:20:23,114.72791267351481
2024-05-23 12:20:23,118.68457091706871
2024-05-23 12:20:23,122.52067724473882
2024-05-23 12:20:23,126.39088046083273
2024-05-23 12:20:23,130.09152683657425
2024-05-23 12:20:23,132.82723433786597
2024-05-23 12:20:23,133.741836291895
2024-05-23 12:20:23,132.59382682029772
2024-05-23 12:20:23,129.89371909192195
2024-05-23 12:20:23,126.50277425576428
2024-05-23 12:20:23,123.1698890668458
2024-05-23 12:20:23,120.36845662200713
2024-05-23 12:20:23,118.38219962807611
2024-05-23 12:20:23,117.3342948179475
2024-05-23 12:20:23,117.00067586748152
2024-05-23 12:20:23,116.63973911838958
2024-05-23 12:20:23,115.24764813833636
2024-05-23 12:20:23,112.40589160107137
2024-05-23 12:20:23,109.11175238603508
2024-05-23 12:20:23,107.51603398904776
2024-05-23 12:20:23,109.27103195814676
2024-05-23 12:20:23,113.80777322210444
2024-05-23 12:20:23,118.42830425454635
2024-05-23 12:20:23,120.42808274135743
2024-05-23 12:20:23,119.27134817464388
2024-05-23 12:20:23,116.81672697764472
2024-05-23 12:20:23,115.64078230849549
2024-05-23 12:20:23,117.15266323362275
2024-05-23 12:20:23,120.88945916171443
2024-05-23 12:20:23,125.11734759857757
2024-05-23 12:20:23,128.0486708941864
2024-05-23 12:20:23,128.88059671719185
2024-05-23 12:20:23,128.08848013286544
2024-05-23 12:20:23,126.84042892708925
2024-05-23 12:20:23,126.05814593203064
2024-05-23 12:20:23,125.92289773196109
2024-05-23 12:20:23,126.06409902854253
2024-05-23 12:20:23,126.00131046277397
2024-05-23 12:20:23,125.35977522453939
2024-05-23 12:20:23,123.84276854935803
2024-05-23 12:20:23,121.24133893577319
2024-05-23 12:20:23,117.62743695630918
2024-05-23 12:20:23,113.55705518131897
2024-05-23 12:20:23,109.95758058503199
2024-05-23 12:20:23,107.64789309221554
2024-05-23 12:20:23,106.87974443225994
2024-05-23 12:20:23,107.27792296311647
2024-05-23 12:20:23,108.19776416940992
2024-05-23 12:20:23,109.21122291117807
2024-05-23 12:20:23,110.34269375998922
2024-05-23 12:20:23,111.79904848050641
2024-05-23 12:20:23,113.43728927353439
2024-05-23 12:20:23,114.58457609224224
2024-05-23 12:20:23,114.44024784538216
2024-05-23 12:20:23,112.73323281290824
2024-05-23 12:20:23,110.16338996324174
2024-05-23 12:20:23,108.1483010701052
2024-05-23 12:20:23,107.83849438107686
2024-05-23 12:20:23,109.1833523325393
2024-05-23 12:20:23,110.94142448656231
2024-05-23 12:20:23,111.60697217436599
2024-05-23 12:20:23,110.45470214176316
2024-05-23 12:20:23,108.03524434634876
2024-05-23 12:20:23,105.87415498146294
2024-05-23 12:20:23,105.53972272772636
2024-05-23 12:20:23,107.68103941602729
2024-05-23 12:20:23,111.70578913902163
2024-05-23 12:20:23,116.23067826104146
2024-05-23 12:20:23,119.83058281460833
2024-05-23 12:20:23,121.55375640906664
2024-05-23 12:20:23,121.08626418408599
2024-05-23 12:20:23,118.76180814602169
2024-05-23 12:20:23,115.4614527776671
2024-05-23 12:20:23,112.2250679802651
2024-05-23 12:20:23,109.72888876935754
2024-05-23 12:20:23,108.19187707493742
2024-05-23 12:20:23,107.83118088571467
2024-05-23 12:20:23,109.15694865126268
2024-05-23 12:20:23,112.53610922901602
2024-05-23 12:20:23,117.46697331207714
2024-05-23 12:20:23,122.42351516804747
2024-05-23 12:20:23,125.53622985500814
2024-05-23 12:20:23,125.64144065847938
2024-05-23 12:20:23,122.93880865424029
2024-05-23 12:20:23,118.81011723192434
2024-05-23 12:20:23,115.00936803834362
2024-05-23 12:20:23,112.79222329100418
2024-05-23 12:20:23,112.42139996183718
2024-05-23 12:20:23,113.18710118360754
2024-05-23 12:20:23,113.87913283019189
2024-05-23 12:20:23,113.47154681286376
2024-05-23 12:20:23,111.6246177120314
2024-05-23 12:20:23,108.6986404954355
2024-05-23 12:20:23,105.35647389620588
2024-05-23 12:20:23,102.1809419429443
2024-05-23 12:20:23,99.64931660343169
2024-05-23 12:20:23,98.34922720225477
2024-05-23 12:20:23,98.95712881627674
2024-05-23 12:20:23,101.7039877885564
2024-05-23 12:20:23,105.78658024233508
2024-05-23 12:20:23,109.48222086676918
2024-05-23 12:20:23,111.08896793049249
2024-05-23 12:20:23,110.03278015140542
2024-05-23 12:20:23,107.32348524118838
2024-05-23 12:20:23,104.98109268919772
2024-05-23 12:20:23,104.71462532719687
2024-05-23 12:20:23,106.6491078082545
2024-05-23 12:20:23,109.00087813776136
2024-05-23 12:20:23,109.10618058272307
2024-05-23 12:20:23,105.30799749463687
2024-05-23 12:20:23,98.39879684540976
2024-05-23 12:20:23,91.40482038401944
2024-05-23 12:20:23,87.77659748709308
2024-05-23 12:20:23,89.38915398868876
2024-05-23 12:20:23,95.55466447028968
2024-05-23 12:20:23,103.51993847205695
2024-05-23 12:20:23,109.9851846241461
2024-05-23 12:20:23,112.83392632766497
2024-05-23 12:20:23,112.16090676462802
2024-05-23 12:20:23,110.0029772244842
2024-05-23 12:20:23,108.91488723095561
2024-05-23 12:20:23,110.30723113730345
2024-05-23 12:20:23,113.71582663901935
2024-05-23 12:20:23,117.45413180863308
2024-05-23 12:20:23,119.9441095291671
2024-05-23 12:20:23,120.61351804269233
2024-05-23 12:20:23,119.86623917128509
2024-05-23 12:20:23,118.4685544271688
2024-05-23 12:20:23,116.99706733394405
2024-05-23 12:20:23,115.72816596090024
2024-05-23 12:20:23,114.79526145350252
2024-05-23 12:20:23,114.21433329492689
2024-05-23 12:20:23,113.75040878114069
2024-05-23 12:20:23,112.99975192615236
2024-05-23 12:20:23,111.81207148970559
2024-05-23 12:20:23,110.56077186616659
2024-05-23 12:20:23,109.78683214306612
2024-05-23 12:20:23,109.5366642626779
2024-05-23 12:20:23,109.13686128714339
2024-05-23 12:20:23,107.61442982540059
2024-05-23 12:20:23,104.33329073941893
2024-05-23 12:20:23,99.39501345926506
2024-05-23 12:20:23,93.69416821034733
2024-05-23 12:20:23,88.6432534557192
2024-05-23 12:20:23,85.63712616356874
2024-05-23 12:20:23,85.48822647637297
2024-05-23 12:20:23,88.16502243611785
2024-05-23 12:20:23,92.92211718797047
2024-05-23 12:20:24,98.50794979101079
2024-05-23 12:20:24,103.32018008486507
2024-05-23 12:20:24,105.8590040899581
2024-05-23 12:20:24,105.48568042409295
2024-05-23 12:20:24,102.85969308061799
2024-05-23 12:20:24,99.59143376348949
2024-05-23 12:20:24,97.35605346847024
2024-05-23 12:20:24,97.05598327273123
2024-05-23 12:20:24,98.48906310944962
2024-05-23 12:20:24,100.71151247567488
2024-05-23 12:20:24,102.80098053356885
2024-05-23 12:20:24,104.36840668374658
2024-05-23 12:20:24,105.47347543881197
2024-05-23 12:20:24,106.23381002950879
2024-05-23 12:20:24,106.57980089352472
2024-05-23 12:20:24,106.26341762254586
2024-05-23 12:20:24,105.06582765175943
2024-05-23 12:20:24,103.06659749928733
2024-05-23 12:20:24,100.6787250772554
2024-05-23 12:20:24,98.40411130922892
2024-05-23 12:20:24,96.70924047446765
2024-05-23 12:20:24,96.22211403034515
2024-05-23 12:20:24,97.77844337909126
2024-05-23 12:20:24,101.8463388003568
2024-05-23 12:20:24,107.79685852293294
2024-05-23 12:20:24,113.88722320920412
2024-05-23 12:20:24,118.05334516328911
2024-05-23 12:20:24,118.83754773969316
2024-05-23 12:20:24,115.94572720067282
2024-05-23 12:20:24,110.3756960141993
2024-05-23 12:20:24,104.07602554072898
2024-05-23 12:20:24,99.15243680541151
2024-05-23 12:20:24,97.02391287802736
2024-05-23 12:20:24,98.01232913360423
2024-05-23 12:20:24,101.44117403354043
2024-05-23 12:20:24,105.97007642983395
2024-05-23 12:20:24,110.00014345413179
2024-05-23 12:20:24,112.1640013390008
2024-05-23 12:20:24,111.80406464719594
2024-05-23 12:20:24,109.1743352550348
2024-05-23 12:20:24,105.21721533290271
2024-05-23 12:20:24,101.17993912344498
2024-05-23 12:20:24,98.48065573147277
2024-05-23 12:20:24,98.68151782108522
2024-05-23 12:20:24,102.93912551073812
2024-05-23 12:20:24,110.85491603780142
2024-05-23 12:20:24,119.80481612988899
2024-05-23 12:20:24,125.945045341786
2024-05-23 12:20:24,126.55579237609425
2024-05-23 12:20:24,121.9236563249284
2024-05-23 12:20:24,115.25307215605861
2024-05-23 12:20:24,110.69245357604419
2024-05-23 12:20:24,110.90002166222746
2024-05-23 12:20:24,115.69964428931104
2024-05-23 12:20:24,122.48842726725248
2024-05-23 12:20:24,127.95591747072987
2024-05-23 12:20:24,129.97945194500895
2024-05-23 12:20:24,128.5235727174737
2024-05-23 12:20:24,125.10617102887275
2024-05-23 12:20:24,121.54503133956372
2024-05-23 12:20:24,119.09019151632471
2024-05-23 12:20:24,118.26370065143986
2024-05-23 12:20:24,118.92401790608919
2024-05-23 12:20:24,120.29289627767812
2024-05-23 12:20:24,121.28050285822536
2024-05-23 12:20:24,121.19570753410822
2024-05-23 12:20:24,120.22873428140565
2024-05-23 12:20:24,119.11594477134845
2024-05-23 12:20:24,118.29980184321073
2024-05-23 12:20:24,117.52985531696855
2024-05-23 12:20:24,116.35403543395194
2024-05-23 12:20:24,114.91911644332355
2024-05-23 12:20:24,114.14099815712576
2024-05-23 12:20:24,114.93625775021266
2024-05-23 12:20:24,117.17736533532614
2024-05-23 12:20:24,119.38666073143669
2024-05-23 12:20:24,119.63189488272461
2024-05-23 12:20:24,117.01019927776053
2024-05-23 12:20:24,112.45207486241637
2024-05-23 12:20:24,108.10442380763097
2024-05-23 12:20:24,105.81358498341385
2024-05-23 12:20:24,105.9737240783324
2024-05-23 12:20:24,107.52646296029641
2024-05-23 12:20:24,108.87577242014788
2024-05-23 12:20:24,108.97649934584318
2024-05-23 12:20:24,107.92729942150609
2024-05-23 12:20:24,106.78620223903329
2024-05-23 12:20:24,106.79876305714436
2024-05-23 12:20:24,108.54162069924035
2024-05-23 12:20:24,111.50907334778265
2024-05-23 12:20:24,114.39503857074158
2024-05-23 12:20:24,115.89276781482495
2024-05-23 12:20:24,115.51308275764461
2024-05-23 12:20:24,113.89568944607191
2024-05-23 12:20:24,112.36010846115552
2024-05-23 12:20:24,111.92533814434228
2024-05-23 12:20:24,112.56362142446038
2024-05-23 12:20:24,113.31537984567403
2024-05-23 12:20:24,113.04819303458041
2024-05-23 12:20:24,111.17308521219879
2024-05-23 12:20:24,107.91861679492571
2024-05-23 12:20:24,104.13834752443664
2024-05-23 12:20:24,100.80659191225604
2024-05-23 12:20:24,98.5238035730107
2024-05-23 12:20:24,97.36954943905283
2024-05-23 12:20:24,97.09763770973032
2024-05-23 12:20:24,97.39292272008251
2024-05-23 12:20:24,97.91577360619468
2024-05-23 12:20:24,98.12844610988968
2024-05-23 12:20:24,97.25486909445787
2024-05-23 12:20:24,94.71530095585032
2024-05-23 12:20:24,90.82142197632031
2024-05-23 12:20:24,86.97524216464487
2024-05-23 12:20:24,84.92709451642313
2024-05-23 12:20:24,85.69373960152092
2024-05-23 12:20:24,89.13307200056735
2024-05-23 12:20:24,94.39075863960764
2024-05-23 12:20:24,100.62081753992975
2024-05-23 12:20:24,107.32730278790046
2024-05-23 12:20:24,114.2097649465795
2024-05-23 12:20:24,120.81282743194483
2024-05-23 12:20:24,126.31967087385826
2024-05-23 12:20:24,129.65962121301104
2024-05-23 12:20:24,129.94411333872267
2024-05-23 12:20:24,127.03551660848825
2024-05-23 12:20:24,121.81273458596208
2024-05-23 12:20:24,115.8487743345182
2024-05-23 12:20:24,110.72943619465161
2024-05-23 12:20:24,107.46091614573322
2024-05-23 12:20:24,106.23421569751996
2024-05-23 12:20:24,106.54988738895338
2024-05-23 12:20:24,107.58648132165867
2024-05-23 12:20:24,108.61094103615208
2024-05-23 12:20:24,109.22144295430259
2024-05-23 12:20:24,109.34353885749044
2024-05-23 12:20:24,109.05224565329468
2024-05-23 12:20:24,108.4063880796225
2024-05-23 12:20:24,107.49428102092314
2024-05-23 12:20:24,106.61593556084144
2024-05-23 12:20:24,106.27845021211839
2024-05-23 12:20:24,106.8162361566336
2024-05-23 12:20:24,107.93558227380308
2024-05-23 12:20:24,108.77436964171753
2024-05-23 12:20:24,108.7205346998075
2024-05-23 12:20:24,108.28315869498529
2024-05-23 12:20:24,108.70867599250437
2024-05-23 12:20:24,110.32497635058249
2024-05-23 12:20:24,111.60361372682421
2024-05-23 12:20:24,110.38311240348807
2024-05-23 12:20:24,106.0602100800959
2024-05-23 12:20:24,100.4474125285921
2024-05-23 12:20:24,96.51230439269058
2024-05-23 12:20:24,96.18000523908961
2024-05-23 12:20:24,98.97592304829972
2024-05-23 12:20:24,102.5283049286374
2024-05-23 12:20:24,104.4956731025311
2024-05-23 12:20:24,104.33737478839176
2024-05-23 12:20:24,103.45403376393442
2024-05-23 12:20:24,103.66476953674683
2024-05-23 12:20:24,105.53293053273705
2024-05-23 12:20:24,108.08452752632647
2024-05-23 12:20:24,109.95152148131774
2024-05-23 12:20:24,110.59230555966221
2024-05-23 12:20:24,110.47448007853406
2024-05-23 12:20:24,110.41614012487541
2024-05-23 12:20:24,110.93226035234287
2024-05-23 12:20:24,112.05192969374014
2024-05-23 12:20:24,113.5195343238231
2024-05-23 12:20:24,115.0320071563364
2024-05-23 12:20:24,116.29344763014477
2024-05-23 12:20:24,117.04610739880479
2024-05-23 12:20:24,117.29507096990324
2024-05-23 12:20:24,117.4839547353937
2024-05-23 12:20:24,118.20007705046918
2024-05-23 12:20:24,119.58062917723313
2024-05-23 12:20:24,121.06070848229025
2024-05-23 12:20:24,121.78944248323417
2024-05-23 12:20:24,121.4006149563822
2024-05-23 12:20:24,120.45203773030978
2024-05-23 12:20:24,120.039505482017
2024-05-23 12:20:24,120.83227845452791
2024-05-23 12:20:24,122.41519208114374
2024-05-23 12:20:24,123.5450277065149
2024-05-23 12:20:24,123.0350611981509
2024-05-23 12:20:24,120.47982463001159
2024-05-23 12:20:24,116.29199002809345
2024-05-23 12:20:24,111.2430318603745
2024-05-23 12:20:24,106.18624601559742
2024-05-23 12:20:24,102.27670459287818
2024-05-23 12:20:24,101.0762178294696
2024-05-23 12:20:24,103.75822923226453
2024-05-23 12:20:24,109.88983027756818
2024-05-23 12:20:24,117.23983306318297
2024-05-23 12:20:24,123.15143500011865
2024-05-23 12:20:24,126.33479804341704
2024-05-23 12:20:24,127.44112000702256
2024-05-23 12:20:24,127.948173292008
2024-05-23 12:20:24,128.53280454430285
2024-05-23 12:20:24,128.50942795801953
2024-05-23 12:20:24,126.72952968598338
2024-05-23 12:20:24,122.93913687162303
2024-05-23 12:20:24,118.35819717006837
2024-05-23 12:20:24,115.02612230731192
2024-05-23 12:20:24,114.42194300533208
2024-05-23 12:20:24,116.41522230385523
2024-05-23 12:20:24,119.33452246277568
2024-05-23 12:20:24,121.07945209113336
2024-05-23 12:20:24,120.41353168589613
2024-05-23 12:20:24,117.45832662356388
2024-05-23 12:20:24,113.16961515027954
2024-05-23 12:20:24,108.52571300206743
2024-05-23 12:20:24,104.26993773753124
2024-05-23 12:20:24,101.15396822779273
2024-05-23 12:20:24,99.97945439263307
2024-05-23 12:20:24,101.15707087060969
2024-05-23 12:20:24,104.28475288165382
2024-05-23 12:20:24,108.33868534514286
2024-05-23 12:20:24,112.35722046399924
2024-05-23 12:20:24,115.83372603483785
2024-05-23 12:20:24,118.39397363272639
2024-05-23 12:20:24,119.33608060194071
2024-05-23 12:20:24,117.8606083450698
2024-05-23 12:20:24,113.86433023906017
2024-05-23 12:20:24,108.3984785237145
2024-05-23 12:20:24,103.29262284741401
2024-05-23 12:20:24,100.22728623267847
2024-05-23 12:20:24,99.84493987480303
2024-05-23 12:20:24,101.46913232720051
2024-05-23 12:20:24,103.72402294166731
2024-05-23 12:20:24,105.69087654474714
2024-05-23 12:20:24,107.64443150154928
2024-05-23 12:20:24,110.6564220687515
2024-05-23 12:20:24,115.29781425779312
2024-05-23 12:20:24,120.57537534144917
2024-05-23 12:20:24,124.26719076855645
2024-05-23 12:20:24,124.60106362300624
2024-05-23 12:20:24,121.77339700667976
